Wavelength,Flux
900.0,1399210000.0
903.442,1513930000.0
904.998,1568490000.0
906.554,1624800000.0
908.11,1682900000.0
909.667,1742880000.0
910.703,1783830000.0
911.74,1825690000.0
911.84,1829770000.0
912.0,1836310000.0
912.31,1849060000.0
912.779,1868490000.0
913.717,1907900000.0
913.871,1914460000.0
914.026,1921040000.0
914.181,1951510000.0
914.335,1975390000.0
914.644,2036880000.0
914.953,2091370000.0
915.0,2087820000.0
915.047,2074220000.0
915.094,2049250000.0
915.141,2012750000.0
915.188,1979180000.0
915.235,1973250000.0
915.282,1975300000.0
915.329,1977360000.0
915.379,1979540000.0
915.479,1997210000.0
915.529,2037630000.0
915.579,2058010000.0
915.629,2041240000.0
915.679,2004400000.0
915.729,1994940000.0
915.779,1997140000.0
915.824,1999130000.0
915.892,2002140000.0
915.926,2003800000.0
915.96,2013150000.0
915.994,2046240000.0
916.028,2095150000.0
916.078,2159070000.0
916.128,2185970000.0
916.178,2168100000.0
916.228,2107670000.0
916.278,2040600000.0
916.328,2021660000.0
916.378,2023760000.0
916.429,2026030000.0
916.531,2030760000.0
916.556,2037160000.0
916.582,2059230000.0
916.607,2099670000.0
916.633,2155910000.0
916.658,2211330000.0
916.684,2267910000.0
916.709,2318230000.0
916.734,2362230000.0
916.76,2394980000.0
916.785,2415700000.0
916.811,2424070000.0
916.836,2419470000.0
916.862,2401750000.0
916.887,2370140000.0
916.913,2325650000.0
916.938,2274010000.0
916.989,2156030000.0
917.014,2104620000.0
917.04,2069920000.0
917.065,2056400000.0
917.091,2055840000.0
917.142,2058140000.0
917.181,2059930000.0
917.26,2063500000.0
917.299,2067760000.0
917.339,2106860000.0
917.378,2200860000.0
917.417,2319770000.0
917.448,2419640000.0
917.51,2601710000.0
917.54,2678330000.0
917.571,2739940000.0
917.602,2788220000.0
917.633,2819560000.0
917.663,2832220000.0
917.694,2825510000.0
917.725,2798720000.0
917.756,2752360000.0
917.786,2689670000.0
917.817,2608470000.0
917.848,2514690000.0
917.879,2413020000.0
917.94,2213600000.0
917.971,2140810000.0
918.002,2104540000.0
918.032,2098930000.0
918.063,2100320000.0
918.125,2103170000.0
918.129,2103360000.0
918.179,2105670000.0
918.229,2108110000.0
918.279,2141770000.0
918.329,2275660000.0
918.379,2469660000.0
918.429,2684090000.0
918.479,2899710000.0
918.529,3097030000.0
918.579,3265850000.0
918.629,3405920000.0
918.679,3502720000.0
918.729,3555060000.0
918.779,3560040000.0
918.829,3515240000.0
918.879,3418470000.0
918.929,3269240000.0
918.979,3083170000.0
919.004,2976350000.0
919.054,2744450000.0
919.105,2514160000.0
919.13,2405260000.0
919.155,2310410000.0
919.18,2230590000.0
919.206,2180300000.0
919.231,2158250000.0
919.256,2156070000.0
919.307,2158450000.0
919.351,2160560000.0
919.44,2164770000.0
919.484,2180080000.0
919.529,2270250000.0
919.573,2443200000.0
919.618,2659320000.0
919.662,2905210000.0
919.707,3163580000.0
919.796,3679220000.0
919.84,3922260000.0
919.885,4145450000.0
919.929,4347320000.0
919.974,4520620000.0
920.018,4665840000.0
920.063,4779590000.0
920.107,4859580000.0
920.152,4905450000.0
920.196,4915410000.0
920.241,4888140000.0
920.285,4822240000.0
920.33,4715720000.0
920.374,4567900000.0
920.419,4383130000.0
920.463,4159740000.0
920.508,3911670000.0
920.56,3590390000.0
920.612,3257440000.0
920.664,2931220000.0
920.716,2638860000.0
920.742,2507980000.0
920.768,2397630000.0
920.795,2308600000.0
920.821,2255310000.0
920.847,2234600000.0
920.873,2233710000.0
920.925,2236250000.0
920.963,2238110000.0
921.039,2241840000.0
921.077,2245260000.0
921.116,2287970000.0
921.154,2404660000.0
921.192,2578620000.0
921.23,2790330000.0
921.268,3035280000.0
921.306,3302580000.0
921.344,3587510000.0
921.421,4186340000.0
921.497,4795470000.0
921.573,5366600000.0
921.65,5873890000.0
921.726,6316750000.0
921.802,6681600000.0
921.879,6968540000.0
921.955,7177920000.0
922.031,7303950000.0
922.107,7343920000.0
922.117,7342590000.0
922.167,7311790000.0
922.217,7239700000.0
922.267,7124270000.0
922.317,6964550000.0
922.367,6758930000.0
922.417,6507860000.0
922.467,6206630000.0
922.506,5944930000.0
922.545,5659400000.0
922.584,5348740000.0
922.662,4681360000.0
922.74,3995140000.0
922.779,3668440000.0
922.818,3362380000.0
922.856,3077330000.0
922.895,2827020000.0
922.934,2615770000.0
922.972,2450320000.0
922.992,2394900000.0
923.042,2342110000.0
923.089,2344180000.0
923.114,2345450000.0
923.138,2346670000.0
923.144,2346970000.0
923.15,2347280000.0
923.156,2347590000.0
923.162,2347890000.0
923.187,2349170000.0
923.211,2350400000.0
923.261,2353670000.0
923.308,2411350000.0
923.358,2599970000.0
923.405,2861770000.0
923.455,3211990000.0
923.505,3614170000.0
923.555,4072010000.0
923.605,4563580000.0
923.655,5082370000.0
923.705,5606950000.0
923.794,6525160000.0
923.883,7393760000.0
923.972,8191460000.0
924.061,8915070000.0
924.15,9562230000.0
924.183,9774060000.0
924.249,10162700000.0
924.314,10513700000.0
924.38,10820400000.0
924.436,11048200000.0
924.549,11401300000.0
924.605,11525700000.0
924.661,11615500000.0
924.688,11645600000.0
924.741,11680900000.0
924.848,11649700000.0
924.894,11592400000.0
924.939,11507900000.0
925.03,11250100000.0
925.075,11074600000.0
925.121,10867600000.0
925.189,10498100000.0
925.257,10061200000.0
925.325,9548520000.0
925.393,8957610000.0
925.461,8306500000.0
925.53,7601550000.0
925.579,7059920000.0
925.678,5926680000.0
925.776,4792050000.0
925.825,4276560000.0
925.873,3801090000.0
925.922,3388700000.0
925.97,3030360000.0
926.02,2741950000.0
926.067,2560310000.0
926.117,2503270000.0
926.165,2505530000.0
926.189,2506830000.0
926.214,2508180000.0
926.22,2508500000.0
926.226,2508830000.0
926.232,2509150000.0
926.238,2509480000.0
926.263,2510830000.0
926.287,2512130000.0
926.337,2515390000.0
926.385,2577930000.0
926.435,2781570000.0
926.482,3064150000.0
926.532,3448160000.0
926.582,3896170000.0
926.632,4416950000.0
926.682,4988680000.0
926.732,5604860000.0
926.782,6243240000.0
926.873,7431050000.0
927.055,9765120000.0
927.159,11011700000.0
927.263,12184500000.0
927.367,13241300000.0
927.471,14207900000.0
927.575,15082600000.0
927.679,15869700000.0
927.777,16525700000.0
927.875,17113700000.0
927.973,17623200000.0
928.071,18063600000.0
928.169,18434100000.0
928.268,18738500000.0
928.366,18972300000.0
928.464,19137000000.0
928.487,19165500000.0
928.537,19213400000.0
928.637,19250700000.0
928.737,19206600000.0
928.837,19075700000.0
928.937,18852900000.0
929.017,18603700000.0
929.097,18287800000.0
929.177,17899700000.0
929.257,17433700000.0
929.337,16887000000.0
929.417,16268000000.0
929.497,15559700000.0
929.577,14775100000.0
929.642,14086900000.0
929.706,13352100000.0
929.77,12568400000.0
929.835,11726300000.0
929.964,9954730000.0
930.093,8116970000.0
930.098,8040600000.0
930.148,7321680000.0
930.248,5927580000.0
930.298,5269900000.0
930.348,4668040000.0
930.398,4127920000.0
930.448,3664290000.0
930.491,3324450000.0
930.541,3012950000.0
930.589,2815300000.0
930.639,2758070000.0
930.687,2760640000.0
930.711,2762060000.0
930.736,2763530000.0
930.742,2763890000.0
930.748,2764230000.0
930.754,2764590000.0
930.76,2764950000.0
930.785,2766420000.0
930.809,2767830000.0
930.859,2771130000.0
930.907,2834430000.0
930.957,3050720000.0
931.005,3361260000.0
931.055,3774790000.0
931.105,4261950000.0
931.155,4832780000.0
931.205,5466210000.0
931.255,6158560000.0
931.305,6885570000.0
931.355,7637910000.0
931.398,8298930000.0
931.484,9639010000.0
931.657,12328000000.0
931.79,14339200000.0
931.923,16235000000.0
932.057,18014900000.0
932.19,19665900000.0
932.324,21176600000.0
932.457,22553900000.0
932.591,23800900000.0
932.724,24920200000.0
932.857,25942500000.0
933.033,27143300000.0
933.209,28179800000.0
933.384,29077200000.0
933.56,29855600000.0
933.736,30509300000.0
933.911,31047300000.0
934.087,31469700000.0
934.276,31791200000.0
934.465,31968200000.0
934.654,31990000000.0
934.843,31843300000.0
935.032,31509400000.0
935.221,30957400000.0
935.41,30207800000.0
935.514,29674600000.0
935.722,28355900000.0
935.825,27578700000.0
935.929,26684800000.0
936.033,25697400000.0
936.137,24596000000.0
936.241,23387400000.0
936.345,22076100000.0
936.448,20664900000.0
936.552,19158700000.0
936.653,17611000000.0
936.753,16004000000.0
936.853,14334900000.0
936.954,12610500000.0
937.148,9273550000.0
937.245,7663540000.0
937.342,6159740000.0
937.391,5488030000.0
937.439,4878310000.0
937.488,4355270000.0
937.536,3903750000.0
937.544,3842760000.0
937.594,3490580000.0
937.642,3264850000.0
937.692,3201640000.0
937.741,3204700000.0
937.766,3206380000.0
937.791,3208060000.0
937.797,3208460000.0
937.803,3208860000.0
937.809,3209270000.0
937.815,3209670000.0
937.84,3211350000.0
937.865,3213030000.0
937.915,3216690000.0
937.964,3287120000.0
938.014,3533850000.0
938.062,3884780000.0
938.112,4348740000.0
938.162,4896180000.0
938.212,5536810000.0
938.262,6249660000.0
938.312,7032010000.0
938.362,7857090000.0
938.412,8712510000.0
938.458,9524260000.0
938.55,11182500000.0
938.734,14577800000.0
938.853,16736700000.0
939.09,20885800000.0
939.209,22858600000.0
939.327,24734100000.0
939.564,28214900000.0
939.683,29798200000.0
939.801,31285700000.0
940.038,34015100000.0
940.275,36447900000.0
940.434,37930600000.0
940.751,40559600000.0
941.069,42851300000.0
941.386,44758200000.0
941.703,46399900000.0
942.015,47774700000.0
942.327,48957300000.0
942.894,50686300000.0
943.461,52047100000.0
943.773,52516300000.0
944.085,52833800000.0
944.625,52982200000.0
944.895,52840800000.0
945.165,52539400000.0
945.435,52054000000.0
945.478,51957600000.0
945.564,51748800000.0
945.736,51263300000.0
946.08,49991100000.0
946.423,48260700000.0
946.595,47197200000.0
946.767,45986700000.0
947.079,43366900000.0
947.235,41843800000.0
947.391,40175700000.0
947.547,38370700000.0
947.703,36388500000.0
947.859,34239100000.0
948.015,31900000000.0
948.171,29343300000.0
948.327,26602000000.0
948.482,23677500000.0
948.638,20591200000.0
948.68,19756300000.0
948.763,18051400000.0
948.929,14550600000.0
949.08,11435400000.0
949.155,9921550000.0
949.231,8481160000.0
949.268,7798150000.0
949.306,7159020000.0
949.344,6567120000.0
949.381,6024640000.0
949.419,5543040000.0
949.457,5110520000.0
949.48,4873110000.0
949.53,4447700000.0
949.58,4163920000.0
949.63,4097550000.0
949.68,4101600000.0
949.705,4103690000.0
949.73,4105780000.0
949.737,4106370000.0
949.743,4106870000.0
949.749,4107370000.0
949.755,4107870000.0
949.781,4110050000.0
949.806,4112150000.0
949.856,4116480000.0
949.906,4191640000.0
949.956,4486280000.0
950.006,4925080000.0
950.056,5475900000.0
950.106,6129740000.0
950.156,6886270000.0
950.206,7732430000.0
950.256,8664370000.0
950.306,9650090000.0
950.356,10669500000.0
950.406,11731800000.0
950.506,13903000000.0
950.707,18367100000.0
950.806,20563300000.0
951.005,24849800000.0
951.203,28937900000.0
951.402,32769300000.0
951.601,36311300000.0
951.8,39573400000.0
951.998,42592200000.0
952.197,45392300000.0
952.407,48142900000.0
952.617,50669900000.0
952.827,52980600000.0
953.246,57062300000.0
953.666,60557500000.0
954.008,63062300000.0
954.35,65324600000.0
955.034,69301900000.0
955.609,72201300000.0
956.184,74783100000.0
957.211,79074200000.0
958.011,82013800000.0
958.812,84796100000.0
959.613,87440100000.0
960.413,90000000000.0
960.776,91485400000.0
961.14,92625000000.0
961.376,93362200000.0
961.611,94096900000.0
962.081,95550000000.0
963.021,98410100000.0
963.251,99110500000.0
963.71,100500000000.0
964.629,103200000000.0
964.89,103961000000.0
965.412,105463000000.0
966.456,108188000000.0
966.53,108370000000.0
966.678,108730000000.0
966.975,109393000000.0
967.567,110549000000.0
968.169,111316000000.0
968.771,111662000000.0
969.372,111314000000.0
969.809,110777000000.0
970.683,109098000000.0
970.874,108402000000.0
971.065,107763000000.0
971.161,107463000000.0
971.257,107176000000.0
971.305,107037000000.0
971.352,106430000000.0
971.4,104650000000.0
971.448,103107000000.0
971.544,100539000000.0
971.639,98451000000.0
971.83,95171600000.0
971.858,94763400000.0
971.913,93986300000.0
972.024,92241000000.0
972.134,89682900000.0
972.245,87519900000.0
972.268,87109600000.0
972.318,86254800000.0
972.37,85414300000.0
972.473,83869800000.0
972.499,83502500000.0
972.524,83157500000.0
972.531,83062000000.0
972.537,82981000000.0
972.543,82899600000.0
972.55,82806400000.0
972.575,82475800000.0
972.601,82138700000.0
972.653,81480000000.0
972.703,81204900000.0
972.803,80776500000.0
972.806,80763600000.0
972.856,80556200000.0
972.956,80152200000.0
973.156,79383000000.0
973.216,79161100000.0
973.336,78868000000.0
973.456,79516100000.0
973.576,80175900000.0
973.626,80455200000.0
973.726,81020600000.0
973.926,82187300000.0
974.126,83682100000.0
974.326,85406500000.0
974.726,89101900000.0
975.265,94120100000.0
975.804,98677800000.0
976.344,102668000000.0
976.905,106502000000.0
977.466,110681000000.0
978.028,115901000000.0
978.544,120321000000.0
979.576,130129000000.0
979.88,134043000000.0
980.184,138048000000.0
980.792,146381000000.0
981.307,151751000000.0
981.823,155495000000.0
982.854,162282000000.0
983.463,165893000000.0
984.681,173651000000.0
985.102,176276000000.0
985.945,181365000000.0
986.742,186273000000.0
988.336,195519000000.0
988.381,195679000000.0
988.47,195997000000.0
988.649,196640000000.0
989.007,198356000000.0
989.723,202166000000.0
990.021,203407000000.0
990.617,204805000000.0
991.212,206199000000.0
991.66,207775000000.0
992.108,210416000000.0
992.555,213718000000.0
993.3,220409000000.0
994.045,228696000000.0
994.79,235958000000.0
995.535,240328000000.0
996.279,244113000000.0
996.65,247241000000.0
997.021,251092000000.0
997.391,255998000000.0
997.762,261533000000.0
998.503,273256000000.0
999.985,295987000000.0
1000.0,296065000000.0
1000.05,296400000000.0
1000.15,297045000000.0
1000.35,298319000000.0
1000.55,299513000000.0
1000.75,300240000000.0
1000.95,300924000000.0
1001.15,301484000000.0
1001.35,301965000000.0
1001.55,302335000000.0
1001.75,302796000000.0
1001.912,303159000000.0
1002.236,303473000000.0
1002.884,303452000000.0
1003.824,301969000000.0
1004.688,299401000000.0
1005.553,295783000000.0
1006.417,290832000000.0
1007.282,285092000000.0
1009.011,271998000000.0
1010.74,257998000000.0
1012.469,244956000000.0
1014.199,233357000000.0
1015.928,223298000000.0
1017.657,213584000000.0
1019.386,202734000000.0
1020.25,195495000000.0
1021.115,185922000000.0
1021.547,179838000000.0
1021.979,172440000000.0
1022.412,163188000000.0
1022.844,151739000000.0
1023.06,145223000000.0
1023.276,137769000000.0
1023.492,130342000000.0
1023.708,120856000000.0
1023.817,116197000000.0
1023.925,111529000000.0
1024.033,106221000000.0
1024.141,99969900000.0
1024.249,94002100000.0
1024.465,82452300000.0
1024.574,75930600000.0
1024.683,69394700000.0
1024.901,56199400000.0
1025.006,49696300000.0
1025.111,43195100000.0
1025.215,36308100000.0
1025.268,32816300000.0
1025.32,29411400000.0
1025.372,26243900000.0
1025.424,23371600000.0
1025.438,22691800000.0
1025.488,20391100000.0
1025.538,18563400000.0
1025.546,18317500000.0
1025.596,17239800000.0
1025.646,16951800000.0
1025.654,16951300000.0
1025.681,16958000000.0
1025.708,16965800000.0
1025.715,16967800000.0
1025.72,16969200000.0
1025.722,16969800000.0
1025.729,16971800000.0
1025.736,16973900000.0
1025.763,16981700000.0
1025.79,16989600000.0
1025.844,17109600000.0
1025.871,17427000000.0
1025.898,18001900000.0
1025.925,18780800000.0
1025.952,19755000000.0
1025.979,20849800000.0
1026.005,22086300000.0
1026.056,24716300000.0
1026.106,27687900000.0
1026.156,30900800000.0
1026.206,34314500000.0
1026.256,37788600000.0
1026.306,41237600000.0
1026.356,44677400000.0
1026.406,48015700000.0
1026.438,50076300000.0
1026.501,54049100000.0
1026.628,62195900000.0
1026.87,77292100000.0
1027.112,91845000000.0
1027.355,105675000000.0
1027.597,119154000000.0
1027.839,130518000000.0
1028.082,141595000000.0
1028.324,151346000000.0
1028.566,160984000000.0
1028.6,162129000000.0
1028.668,164414000000.0
1028.803,168993000000.0
1029.073,177711000000.0
1029.344,185133000000.0
1029.614,192137000000.0
1030.155,204465000000.0
1030.329,208008000000.0
1030.676,215041000000.0
1031.37,229032000000.0
1032.058,241373000000.0
1032.745,251804000000.0
1033.433,261484000000.0
1033.787,266361000000.0
1034.495,274551000000.0
1035.203,281764000000.0
1035.516,285806000000.0
1036.142,295551000000.0
1036.768,308120000000.0
1037.246,319944000000.0
1037.724,332323000000.0
1038.68,357610000000.0
1038.975,366247000000.0
1039.565,381369000000.0
1040.155,394482000000.0
1040.704,407708000000.0
1041.803,437187000000.0
1042.433,452903000000.0
1043.694,485891000000.0
1044.162,499692000000.0
1045.099,529800000000.0
1045.892,560600000000.0
1046.685,594014000000.0
1047.621,628270000000.0
1048.557,663243000000.0
1048.81,675680000000.0
1049.317,703023000000.0
1050.0,741399000000.0
1050.683,767908000000.0
1051.366,787128000000.0
1052.731,818487000000.0
1053.414,829383000000.0
1054.097,838104000000.0
1055.0,855333000000.0
1055.903,872433000000.0
1056.806,868724000000.0
1057.708,853666000000.0
1058.16,850343000000.0
1058.611,853083000000.0
1059.063,862615000000.0
1059.514,878915000000.0
1060.0,903844000000.0
1060.486,935941000000.0
1060.972,977442000000.0
1061.215,1004080000000.0
1061.458,1033480000000.0
1061.7,1068950000000.0
1061.943,1108300000000.0
1062.186,1154930000000.0
1062.429,1209000000000.0
1062.672,1271840000000.0
1062.915,1342700000000.0
1063.158,1419260000000.0
1063.401,1504180000000.0
1063.644,1593200000000.0
1063.887,1691260000000.0
1064.373,1887930000000.0
1065.0,2133920000000.0
1065.627,2359310000000.0
1066.255,2593780000000.0
1066.882,2850270000000.0
1067.51,3103020000000.0
1067.823,3189130000000.0
1068.137,3250610000000.0
1068.451,3273560000000.0
1068.765,3237460000000.0
1069.078,3179320000000.0
1069.392,3086240000000.0
1070.0,2886880000000.0
1070.608,2711960000000.0
1070.912,2643390000000.0
1071.216,2592000000000.0
1071.52,2548620000000.0
1071.824,2518660000000.0
1072.432,2465720000000.0
1073.04,2401280000000.0
1073.647,2299900000000.0
1074.255,2176190000000.0
1074.863,2047430000000.0
1075.0,2019800000000.0
1075.273,1971550000000.0
1075.547,1928050000000.0
1075.82,1896440000000.0
1076.094,1872120000000.0
1076.367,1860010000000.0
1076.641,1859130000000.0
1076.914,1868040000000.0
1077.188,1893400000000.0
1077.461,1927200000000.0
1077.734,1982820000000.0
1078.008,2045910000000.0
1078.281,2136860000000.0
1078.555,2239470000000.0
1078.828,2369540000000.0
1079.102,2523500000000.0
1079.375,2710560000000.0
1079.648,2927370000000.0
1079.824,3085460000000.0
1080.0,3259050000000.0
1080.176,3446670000000.0
1080.352,3655780000000.0
1080.527,3893260000000.0
1080.703,4142660000000.0
1080.879,4419540000000.0
1081.055,4720350000000.0
1081.23,5032280000000.0
1081.406,5387300000000.0
1081.538,5670360000000.0
1081.801,6250510000000.0
1082.065,6901660000000.0
1082.328,7569290000000.0
1082.592,8301470000000.0
1082.855,9068280000000.0
1083.077,9754660000000.0
1083.521,11159200000000.0
1084.409,13988100000000.0
1085.296,16724300000000.0
1086.184,19226000000000.0
1086.538,20177200000000.0
1087.246,21971600000000.0
1087.954,23642900000000.0
1088.662,25172800000000.0
1090.0,27853700000000.0
1091.338,30232300000000.0
1092.007,31288300000000.0
1092.676,32266500000000.0
1094.014,34156400000000.0
1095.0,35388000000000.0
1096.972,37530200000000.0
1097.958,38309500000000.0
1098.944,39033100000000.0
1100.0,39514900000000.0
1101.056,39911900000000.0
1102.112,40104500000000.0
1103.168,40254700000000.0
1105.0,40483900000000.0
1106.832,40400500000000.0
1108.663,39954700000000.0
1109.332,39637000000000.0
1110.0,39208100000000.0
1111.337,38299600000000.0
1114.011,36441100000000.0
1115.0,35850800000000.0
1115.989,35497300000000.0
1116.979,35119500000000.0
1118.957,34548200000000.0
1120.0,34076500000000.0
1121.043,33580000000000.0
1123.129,32364000000000.0
1125.0,31130200000000.0
1126.871,29378600000000.0
1128.742,27044900000000.0
1129.371,26137700000000.0
1130.0,25164100000000.0
1131.154,23490500000000.0
1132.308,21877000000000.0
1134.616,18781600000000.0
1136.154,16626400000000.0
1137.692,14422600000000.0
1140.0,11200500000000.0
1141.154,9806350000000.0
1142.308,8461910000000.0
1142.885,7906260000000.0
