Wavelength,Flux
900.0,624088.0
903.442,695402.0
904.998,730048.0
906.554,766280.0
908.11,804165.0
909.667,843795.0
910.703,871159.0
911.74,899362.0
911.84,902126.0
912.0,906566.0
912.31,915220.0
912.779,928464.0
913.717,955476.0
914.335,973671.0
915.329,1003600.0
915.824,1018820.0
915.892,1020930.0
916.028,1027190.0
916.3,1034300.0
916.429,1037720.0
916.686,1053270.0
916.944,1063610.0
917.062,1058330.0
917.181,1061650.0
917.3,1066070.0
917.418,1084980.0
917.448,1088020.0
917.507,1093300.0
917.626,1101390.0
917.863,1108330.0
917.982,1094140.0
918.101,1091600.0
918.129,1092540.0
918.186,1094420.0
918.243,1096690.0
918.3,1113740.0
918.413,1139460.0
918.527,1154150.0
918.641,1164530.0
918.869,1179170.0
919.004,1180510.0
919.072,1175360.0
919.14,1162510.0
919.275,1131000.0
919.313,1132290.0
919.351,1133590.0
919.401,1135290.0
919.451,1137020.0
919.501,1150780.0
919.551,1177840.0
919.601,1198150.0
919.701,1226750.0
919.801,1245560.0
919.901,1259830.0
920.101,1280900.0
920.301,1292960.0
920.501,1295360.0
920.56,1290760.0
920.619,1280850.0
920.678,1265410.0
920.737,1241840.0
920.796,1210360.0
920.826,1190580.0
920.855,1186110.0
920.885,1187120.0
920.914,1188170.0
920.963,1189910.0
921.06,1193380.0
921.157,1240910.0
921.254,1295110.0
921.351,1334530.0
921.448,1362320.0
921.545,1382520.0
921.642,1400310.0
921.836,1429760.0
922.117,1460330.0
922.398,1476930.0
922.506,1474360.0
922.614,1462600.0
922.669,1450910.0
922.723,1433490.0
922.777,1410530.0
922.831,1382290.0
922.895,1346100.0
922.992,1285340.0
923.041,1266330.0
923.089,1268130.0
923.114,1269070.0
923.138,1269980.0
923.144,1270210.0
923.15,1270440.0
923.156,1270670.0
923.162,1270890.0
923.187,1271850.0
923.211,1272750.0
923.261,1274700.0
923.308,1297470.0
923.358,1334020.0
923.405,1367300.0
923.499,1434680.0
923.687,1557770.0
923.741,1585130.0
923.794,1610720.0
923.901,1655400.0
924.007,1693600.0
924.114,1727270.0
924.183,1747310.0
924.322,1775710.0
924.436,1796070.0
924.665,1830630.0
924.688,1833700.0
924.738,1839990.0
924.838,1851510.0
924.939,1861000.0
925.141,1869940.0
925.189,1869770.0
925.285,1864600.0
925.38,1850250.0
925.476,1827770.0
925.528,1807940.0
925.579,1784260.0
925.63,1752240.0
925.682,1719420.0
925.733,1678230.0
925.785,1633560.0
925.887,1540010.0
925.97,1476060.0
926.053,1419330.0
926.067,1408500.0
926.117,1387740.0
926.165,1389710.0
926.189,1390700.0
926.214,1391720.0
926.22,1391970.0
926.226,1392220.0
926.232,1392470.0
926.238,1392710.0
926.263,1393750.0
926.287,1394740.0
926.337,1396830.0
926.385,1421840.0
926.435,1461520.0
926.482,1498590.0
926.576,1582960.0
926.67,1682450.0
926.764,1780780.0
926.873,1879120.0
926.982,1961070.0
927.091,2026680.0
927.2,2081350.0
927.263,2104350.0
927.389,2149440.0
927.515,2183820.0
927.641,2213150.0
927.875,2254510.0
928.109,2287900.0
928.487,2333010.0
928.792,2364770.0
929.097,2381580.0
929.249,2379770.0
929.401,2368620.0
929.554,2347570.0
929.706,2305620.0
929.756,2289490.0
929.856,2246390.0
929.956,2189070.0
930.056,2115580.0
930.098,2079540.0
930.182,1998840.0
930.266,1909800.0
930.351,1816330.0
930.421,1743780.0
930.491,1684240.0
930.589,1607710.0
930.638,1585730.0
930.687,1588010.0
930.711,1589120.0
930.736,1590290.0
930.742,1590580.0
930.748,1590850.0
930.754,1591130.0
930.76,1591410.0
930.785,1592580.0
930.809,1593700.0
930.859,1596040.0
930.907,1622770.0
930.957,1667340.0
931.005,1709840.0
931.101,1806700.0
931.149,1863670.0
931.197,1923640.0
931.293,2043460.0
931.398,2162340.0
931.503,2266890.0
931.608,2353700.0
931.712,2427690.0
931.79,2472850.0
931.945,2551480.0
932.1,2610640.0
932.255,2656410.0
932.566,2723180.0
932.876,2781520.0
933.033,2808360.0
933.347,2856190.0
933.975,2928100.0
934.276,2956440.0
934.878,3002090.0
935.514,3028970.0
935.832,3028050.0
936.15,3013160.0
936.301,2996990.0
936.451,2969280.0
936.602,2924650.0
936.753,2857150.0
936.904,2768680.0
937.055,2645060.0
937.148,2548190.0
937.242,2437590.0
937.335,2314070.0
937.429,2190900.0
937.486,2123040.0
937.544,2065280.0
937.642,1973790.0
937.692,1947070.0
937.741,1949860.0
937.766,1951270.0
937.791,1952670.0
937.797,1953010.0
937.803,1953350.0
937.809,1953690.0
937.815,1954030.0
937.84,1955440.0
937.865,1956850.0
937.915,1959670.0
937.964,1992260.0
938.014,2045410.0
938.062,2096370.0
938.158,2212000.0
938.206,2280420.0
938.254,2352700.0
938.35,2497340.0
938.458,2645900.0
938.566,2777640.0
938.674,2888010.0
938.781,2982790.0
938.853,3035890.0
938.996,3132940.0
939.14,3210000.0
939.283,3273140.0
939.57,3373260.0
939.856,3462670.0
940.429,3609680.0
940.434,3610760.0
940.484,3622150.0
940.584,3643980.0
940.784,3683660.0
940.984,3722750.0
941.184,3755100.0
941.384,3786680.0
941.584,3816950.0
941.784,3847810.0
941.984,3878080.0
942.015,3882320.0
942.077,3890570.0
942.201,3906980.0
942.448,3939650.0
942.894,3998350.0
943.773,4108150.0
944.625,4203700.0
945.478,4289010.0
946.279,4349140.0
947.079,4364440.0
947.479,4337700.0
947.879,4279200.0
948.08,4242520.0
948.28,4189810.0
948.48,4108080.0
948.68,3982890.0
948.78,3905660.0
948.88,3804720.0
948.98,3688750.0
949.08,3545920.0
949.13,3465170.0
949.23,3296700.0
949.43,2957890.0
949.48,2892990.0
949.53,2831390.0
949.58,2769370.0
949.63,2735190.0
949.68,2739030.0
949.705,2740960.0
949.73,2742880.0
949.737,2743420.0
949.743,2743880.0
949.749,2744340.0
949.755,2744800.0
949.781,2746810.0
949.806,2748740.0
949.856,2752600.0
949.906,2794890.0
949.956,2865400.0
950.006,2935920.0
950.106,3095180.0
950.156,3190360.0
950.206,3291180.0
950.306,3493020.0
950.406,3679120.0
950.506,3848510.0
950.606,3991500.0
950.706,4119910.0
950.806,4224410.0
951.006,4405310.0
951.206,4542690.0
951.406,4650920.0
951.605,4743800.0
952.005,4918400.0
952.407,5064970.0
952.809,5188060.0
953.613,5387780.0
954.008,5475310.0
954.798,5652650.0
955.609,5818070.0
957.211,6135640.0
958.812,6475510.0
960.413,6837210.0
960.776,6924390.0
961.14,7009140.0
961.376,7065730.0
961.611,7125450.0
962.081,7241680.0
963.021,7460270.0
963.251,7518700.0
963.71,7646640.0
964.629,7874910.0
964.89,7941220.0
965.412,8084050.0
966.456,8380350.0
966.53,8399180.0
966.678,8437720.0
966.975,8516530.0
967.567,8686630.0
968.169,8869460.0
969.372,9156700.0
969.809,9260180.0
970.683,9443030.0
971.065,9483320.0
971.448,9404000.0
971.653,9281260.0
971.858,9199960.0
971.908,9184150.0
972.008,9154180.0
972.208,9044440.0
972.268,9023480.0
972.37,8998830.0
972.473,8983100.0
972.499,8980080.0
972.524,8977150.0
972.531,8976360.0
972.537,8975700.0
972.543,8975040.0
972.55,8974290.0
972.575,8971660.0
972.601,8969050.0
972.653,8964070.0
972.703,8967550.0
972.803,8979380.0
972.806,8979760.0
972.856,8985920.0
972.956,8998540.0
973.156,9024280.0
973.216,9032130.0
973.336,9051790.0
973.576,9128430.0
973.626,9144710.0
973.726,9177390.0
973.926,9243550.0
974.326,9401760.0
975.126,9767920.0
975.265,9846160.0
975.544,9988180.0
976.101,10286800.0
976.905,10703700.0
977.709,11209900.0
978.512,11795500.0
978.544,11819800.0
978.608,11870000.0
978.735,11967300.0
978.989,12153700.0
979.498,12582200.0
979.841,12947200.0
980.184,13314800.0
980.87,13929500.0
981.556,14472800.0
981.823,14657900.0
982.357,15083600.0
983.424,15835700.0
983.463,15858900.0
983.54,15905800.0
983.694,16002700.0
984.003,16206500.0
984.62,16700800.0
985.102,17178300.0
985.584,17605600.0
986.065,17911400.0
986.547,18261500.0
986.742,18413800.0
987.132,18739800.0
987.521,19110100.0
987.911,19631600.0
988.146,19897300.0
988.381,20029200.0
988.616,20168000.0
988.851,20314800.0
989.087,20489100.0
989.322,20676000.0
989.557,20869500.0
989.792,21065800.0
990.021,21275700.0
990.478,21740700.0
991.393,22536200.0
991.66,22716100.0
992.194,23194100.0
992.729,23835400.0
993.263,24677800.0
993.3,24744900.0
993.374,24885900.0
993.523,25201200.0
993.82,25775800.0
994.116,26184200.0
994.413,26573700.0
995.007,27268400.0
996.195,28811500.0
996.422,29293400.0
996.65,29845400.0
996.878,30139800.0
997.106,30449800.0
997.333,30862400.0
997.561,31292500.0
997.789,31737200.0
998.017,32188200.0
998.245,32672900.0
998.472,33152400.0
998.7,33641100.0
998.928,34188900.0
999.156,34820800.0
999.383,35543800.0
999.611,36344100.0
999.839,37233600.0
999.919,37337600.0
1000.0,37429200.0
1000.161,37625300.0
1000.483,38042800.0
1001.127,38900100.0
1001.912,40226700.0
1002.304,41310500.0
1002.697,42080200.0
1003.089,42383200.0
1003.482,42721600.0
1003.824,42990600.0
1004.508,43654700.0
1005.031,44449400.0
1005.553,45359100.0
1006.075,45248100.0
1006.598,45249700.0
1007.282,45299100.0
1008.651,45041700.0
1009.011,44656500.0
1009.371,44303500.0
1010.092,43322300.0
1010.74,42483200.0
1011.388,41686200.0
1012.036,40219100.0
1012.469,39264800.0
1013.335,37423900.0
1014.199,35579400.0
1015.063,34012500.0
1015.927,32735700.0
1015.928,32733900.0
1015.978,32672400.0
1016.078,32541200.0
1016.278,32298600.0
1016.478,32083800.0
1016.678,31869900.0
1016.878,31676700.0
1017.078,31493100.0
1017.278,31315600.0
1017.478,31167800.0
1017.657,31038500.0
1018.015,30827400.0
1018.731,30504800.0
1019.386,30310500.0
1020.697,30130500.0
1021.115,30111700.0
1021.952,30146600.0
1022.844,30054500.0
1023.276,29841300.0
1023.709,29459100.0
1023.925,29247000.0
1024.141,28908500.0
1024.358,28437300.0
1024.574,27773900.0
1024.682,27333800.0
1024.79,26832300.0
1024.898,26224500.0
1025.006,25502800.0
1025.114,24629500.0
1025.221,23573600.0
1025.329,22333800.0
1025.436,21093300.0
1025.438,21074200.0
1025.488,20593900.0
1025.538,20150800.0
1025.546,20083700.0
1025.596,19684300.0
1025.646,19466400.0
1025.654,19461000.0
1025.681,19467300.0
1025.708,19479700.0
1025.715,19482900.0
1025.72,19485200.0
1025.722,19486200.0
1025.729,19489400.0
1025.736,19492600.0
1025.763,19505100.0
1025.79,19518000.0
1025.844,19666300.0
1025.871,19865700.0
1025.898,20111400.0
1025.952,20628700.0
1026.006,21187800.0
1026.06,21828300.0
1026.115,22533800.0
1026.223,23953800.0
1026.331,25198200.0
1026.438,26272400.0
1026.545,27156000.0
1026.653,27923700.0
1026.76,28592100.0
1026.868,29177000.0
1026.87,29190200.0
1026.92,29461500.0
1026.97,29718100.0
1027.02,29952200.0
1027.07,30153000.0
1027.12,30345800.0
1027.17,30541000.0
1027.22,30725600.0
1027.27,30900300.0
1027.32,31072900.0
1027.37,31240500.0
1027.421,31401100.0
1027.471,31563600.0
1027.521,31714000.0
1027.571,31838600.0
1027.621,31959600.0
1027.671,32082300.0
1027.721,32201100.0
1027.771,32328200.0
1027.821,32458600.0
1027.871,32585000.0
1027.921,32713600.0
1027.971,32850300.0
1028.021,32976100.0
1028.071,33091600.0
1028.121,33203400.0
1028.171,33312600.0
1028.221,33428900.0
1028.271,33541800.0
1028.321,33656300.0
1028.371,33767300.0
1028.422,33876300.0
1028.472,33986100.0
1028.522,34087900.0
1028.572,34180800.0
1028.6,34233600.0
1028.657,34345700.0
1028.77,34561500.0
1028.996,34976000.0
1029.45,35707400.0
1030.329,37069700.0
1031.193,38603900.0
1032.058,40389300.0
1032.922,42306000.0
1033.787,44413600.0
1035.516,48711600.0
1035.948,50300900.0
1036.381,52307700.0
1036.813,55026900.0
1037.246,58485800.0
1037.678,62590900.0
1038.111,67235200.0
1038.543,72670500.0
1038.975,79283600.0
1039.839,92242900.0
1040.271,99053100.0
1040.704,106809000.0
1041.136,116109000.0
1041.569,126447000.0
1042.433,146520000.0
1042.865,157059000.0
1043.297,169143000.0
1043.729,182548000.0
1044.161,197136000.0
1044.212,198933000.0
1044.262,200713000.0
1044.312,202507000.0
1044.362,204318000.0
1044.412,206149000.0
1044.462,208000000.0
1044.512,209900000.0
1044.562,211835000.0
1044.612,213790000.0
1044.662,215762000.0
1044.713,217754000.0
1044.763,219766000.0
1044.813,221798000.0
1044.863,223853000.0
1044.913,225928000.0
1044.963,228025000.0
1045.013,230178000.0
1045.063,232451000.0
1045.113,234752000.0
1045.163,237080000.0
1045.213,239432000.0
1045.263,241806000.0
1045.313,244208000.0
1045.363,246641000.0
1045.413,249105000.0
1045.463,251611000.0
1045.513,254225000.0
1045.563,256968000.0
1045.613,259747000.0
1045.663,262563000.0
1045.714,265417000.0
1045.764,268309000.0
1045.814,271239000.0
1045.864,274189000.0
1045.892,275872000.0
1045.949,279276000.0
1046.062,286014000.0
1046.288,299717000.0
1046.742,327025000.0
1047.181,351480000.0
1047.621,373607000.0
1048.061,396076000.0
1048.5,422900000.0
1048.655,434837000.0
1048.81,447125000.0
1049.12,473450000.0
1049.739,530015000.0
1050.0,553730000.0
1050.261,571382000.0
1050.522,588818000.0
1050.784,601017000.0
1051.045,613554000.0
1051.567,633720000.0
1052.09,652980000.0
1052.612,670425000.0
1053.135,683821000.0
1053.657,693186000.0
1054.18,702431000.0
1054.59,712624000.0
1055.0,726124000.0
1055.82,749978000.0
1056.23,751534000.0
1056.641,744204000.0
1057.051,729665000.0
1057.461,712154000.0
1057.871,699131000.0
1058.281,694200000.0
1058.691,698686000.0
1059.102,713201000.0
1059.512,737933000.0
1059.922,774380000.0
1060.0,781569000.0
1060.156,799471000.0
1060.469,836941000.0
1060.781,884241000.0
1061.094,938969000.0
1061.406,1005550000.0
1061.719,1087250000.0
1061.875,1133760000.0
1062.031,1184460000.0
1062.188,1243060000.0
1062.344,1306180000.0
1062.5,1374370000.0
1062.656,1449720000.0
1062.812,1531450000.0
1062.969,1620280000.0
1063.281,1809900000.0
1063.438,1917090000.0
1063.594,2024280000.0
1063.906,2251920000.0
1064.219,2478720000.0
1064.844,2927790000.0
1065.0,3043310000.0
1065.156,3140290000.0
1065.312,3241580000.0
1065.625,3447560000.0
1066.25,3872370000.0
1066.875,4344470000.0
1067.5,4814890000.0
1067.812,4973760000.0
1068.125,5089220000.0
1068.438,5131580000.0
1068.75,5073990000.0
1069.062,4973330000.0
1069.375,4801740000.0
1070.0,4423860000.0
1070.312,4248530000.0
1070.625,4096280000.0
1070.938,3969060000.0
1071.25,3877100000.0
1071.562,3800340000.0
1071.875,3745220000.0
1072.5,3649200000.0
1073.125,3518470000.0
1073.75,3320660000.0
1074.375,3076650000.0
1075.0,2829050000.0
1075.312,2724490000.0
1075.625,2636480000.0
1075.938,2567920000.0
1076.25,2532330000.0
1076.562,2513940000.0
1076.875,2531520000.0
1077.188,2579450000.0
1077.5,2649580000.0
1077.812,2775220000.0
1078.125,2929920000.0
1078.438,3130730000.0
1078.75,3389360000.0
1079.062,3698110000.0
1079.375,4080550000.0
1079.688,4535060000.0
1080.0,5078750000.0
1080.312,5712970000.0
1080.625,6458400000.0
1080.938,7327400000.0
1081.25,8299030000.0
1081.394,8804580000.0
1081.538,9340370000.0
1081.826,10449400000.0
1082.114,11688500000.0
1082.401,13009400000.0
1082.689,14401700000.0
1082.977,15929500000.0
1083.077,16434500000.0
1083.277,17464900000.0
1083.676,19643400000.0
1084.076,21867100000.0
1084.874,26156600000.0
1085.274,28169000000.0
1085.673,30074400000.0
1086.472,33576700000.0
1086.538,33850300000.0
1086.67,34375300000.0
1086.933,35462200000.0
1087.461,37358200000.0
1087.988,39065400000.0
1089.043,42106500000.0
1089.521,43213700000.0
1090.0,44140300000.0
1090.957,45846100000.0
1091.914,46725700000.0
1092.871,47222200000.0
1093.828,47160500000.0
1094.785,46838700000.0
1095.0,46745600000.0
1095.43,46264700000.0
1095.859,45760500000.0
1096.719,44702800000.0
1097.578,43080700000.0
1098.438,41220500000.0
1099.219,39355100000.0
1100.0,37038700000.0
1101.562,32328300000.0
1103.125,27457400000.0
1104.688,22486800000.0
1105.0,21615900000.0
1105.312,20551500000.0
1105.625,19545200000.0
1106.25,17693700000.0
1106.562,16843300000.0
1106.875,16038600000.0
1107.188,15149500000.0
1107.5,14237900000.0
1107.812,13386500000.0
1108.125,12591400000.0
1108.438,11850800000.0
1108.75,11162400000.0
1109.375,9719920000.0
1109.688,9019320000.0
1110.0,8376590000.0
1110.312,7785920000.0
1110.625,7244920000.0
1111.25,6171400000.0
1111.562,5624100000.0
1111.875,5134510000.0
1112.188,4695890000.0
1112.5,4302300000.0
1112.812,3949180000.0
1113.125,3616800000.0
1113.438,3301470000.0
1113.75,3020990000.0
1114.062,2771430000.0
1114.375,2548780000.0
1114.688,2349420000.0
1115.0,2170650000.0
1115.625,1818790000.0
1115.938,1674090000.0
1116.25,1546150000.0
1116.562,1432740000.0
1116.875,1332180000.0
1117.5,1135260000.0
1117.812,1052160000.0
1118.125,979512000.0
1118.438,915764000.0
1118.75,859384000.0
1119.375,751670000.0
1119.688,704007000.0
1120.0,663612000.0
1120.312,629381000.0
1120.625,599739000.0
1121.25,545687000.0
1121.562,520829000.0
1121.875,500344000.0
1122.188,483277000.0
1122.5,468850000.0
1123.125,444434000.0
1123.75,422389000.0
1124.062,414065000.0
1124.375,407220000.0
1125.0,396333000.0
1125.625,385392000.0
1126.25,378177000.0
1126.875,373213000.0
1128.125,365084000.0
1129.062,361934000.0
1130.0,359241000.0
1131.154,358220000.0
1132.308,357781000.0
1134.616,360049000.0
1136.154,362956000.0
1139.23,372014000.0
1140.0,374624000.0
1141.539,380788000.0
1144.617,395299000.0
1145.0,397378000.0
1145.766,401422000.0
1147.297,410279000.0
1150.0,427099000.0
1152.703,444943000.0
1155.406,463406000.0
1158.109,482640000.0
1160.812,502491000.0
1163.516,522386000.0
1165.769,538712000.0
1170.276,570533000.0
1174.783,602985000.0
1179.29,639384000.0
1181.538,659544000.0
1185.628,699393000.0
1189.718,742487000.0
1191.767,763914000.0
1193.816,784103000.0
1195.866,802361000.0
1197.915,819213000.0
1199.964,835351000.0
1202.014,849726000.0
1204.063,861180000.0
1206.113,864546000.0
1207.137,861988000.0
1208.162,856373000.0
1208.212,856101000.0
1208.262,855838000.0
1208.312,855578000.0
1208.362,855326000.0
1208.412,855083000.0
1208.462,854849000.0
1208.512,854555000.0
1208.562,854063000.0
1208.612,853584000.0
1208.662,853120000.0
1208.713,852668000.0
1208.763,852290000.0
1208.813,851949000.0
1208.863,851621000.0
1208.913,851295000.0
1208.963,850979000.0
1209.013,850654000.0
1209.063,850072000.0
1209.113,849513000.0
1209.163,848973000.0
1209.213,848451000.0
1209.263,847948000.0
1209.313,847463000.0
1209.363,846994000.0
1209.413,846559000.0
1209.463,846159000.0
1209.513,845708000.0
1209.563,845113000.0
1209.613,844541000.0
1209.663,843991000.0
1209.714,843520000.0
1209.764,843142000.0
1209.814,842769000.0
1209.864,842406000.0
1209.914,842059000.0
1209.964,841729000.0
1210.014,841382000.0
1210.064,840965000.0
1210.114,840569000.0
1210.164,840193000.0
1210.211,839855000.0
1210.305,839277000.0
1210.494,838292000.0
1210.871,834605000.0
1211.625,828373000.0
1212.261,825500000.0
1213.534,825281000.0
1214.31,828635000.0
1214.822,832330000.0
1215.335,831718000.0
1215.399,828690000.0
1215.463,822942000.0
1215.513,816999000.0
1215.563,812433000.0
1215.591,811885000.0
1215.623,812248000.0
1215.655,812670000.0
1215.663,812775000.0
1215.67,812870000.0
1215.679,812987000.0
1215.687,813094000.0
1215.719,813515000.0
1215.751,814013000.0
1215.815,819684000.0
1215.879,829932000.0
1215.929,836976000.0
1215.979,842273000.0
1216.007,844845000.0
1216.063,849167000.0
1216.174,856117000.0
1216.397,867306000.0
1216.52,873793000.0
1216.767,884992000.0
1217.032,899437000.0
1217.562,932448000.0
1218.093,969562000.0
1218.623,1011830000.0
1219.081,1044820000.0
1219.998,1116160000.0
1220.564,1146290000.0
1221.131,1179130000.0
1221.181,1182040000.0
1221.231,1184980000.0
1221.281,1187950000.0
1221.331,1190940000.0
1221.381,1193950000.0
1221.431,1196950000.0
1221.481,1200110000.0
1221.531,1202250000.0
1221.581,1203740000.0
1221.631,1205230000.0
1221.682,1206730000.0
1221.732,1208230000.0
1221.782,1209730000.0
1221.832,1211230000.0
1221.882,1212740000.0
1221.932,1214250000.0
1221.982,1215760000.0
1222.032,1217310000.0
1222.082,1218870000.0
1222.132,1220440000.0
1222.182,1222010000.0
1222.232,1223580000.0
1222.282,1225160000.0
1222.332,1226750000.0
1222.382,1228370000.0
1222.432,1229990000.0
1222.482,1231610000.0
1222.532,1233710000.0
1222.582,1236090000.0
1222.632,1238470000.0
1222.682,1240850000.0
1222.733,1243250000.0
1222.783,1245690000.0
1222.833,1248130000.0
1222.883,1250570000.0
1222.933,1253030000.0
1222.983,1255510000.0
1223.033,1257740000.0
1223.083,1259830000.0
1223.133,1261930000.0
1223.18,1263940000.0
1223.274,1267950000.0
1223.463,1276060000.0
1223.84,1290910000.0
1224.594,1317560000.0
1225.229,1336580000.0
1226.5,1369030000.0
1227.279,1387220000.0
1228.838,1425020000.0
1229.328,1437200000.0
1230.309,1462550000.0
1231.378,1489970000.0
1233.427,1543660000.0
1235.476,1597640000.0
1237.526,1652600000.0
1239.575,1707580000.0
1241.625,1763690000.0
1245.725,1881510000.0
1249.825,2006650000.0
1250.812,2037070000.0
1252.786,2101270000.0
