Wavelength,Flux
900.0,28607100.0
903.442,31414800.0
904.998,32764500.0
906.554,34166900.0
908.11,35623500.0
909.667,37137400.0
910.703,38176900.0
911.74,39243800.0
911.84,39348100.0
912.0,39515500.0
912.31,39841700.0
912.779,40339900.0
913.717,41353200.0
914.335,42033500.0
915.329,43148800.0
915.824,43714200.0
915.892,43792500.0
916.028,43999500.0
916.3,44276000.0
916.429,44414600.0
916.686,44923800.0
916.944,45276100.0
917.181,45299100.0
917.3,45453800.0
917.418,45994100.0
917.448,46114900.0
917.507,46312600.0
917.626,46610700.0
917.863,46785300.0
917.982,46375400.0
918.101,46402400.0
918.129,46436900.0
918.186,46506000.0
918.3,46955500.0
918.413,47823700.0
918.527,48356300.0
918.641,48716600.0
918.869,49173800.0
919.004,49160000.0
919.072,48951700.0
919.14,48508600.0
919.275,47847200.0
919.351,47942000.0
919.427,48037100.0
919.503,48364700.0
919.579,49369600.0
919.655,50204300.0
919.731,50798100.0
919.883,51538200.0
920.035,52058800.0
920.339,52726800.0
920.449,52799600.0
920.56,52634800.0
920.671,51978800.0
920.781,50505200.0
920.872,49877200.0
920.963,49995100.0
921.054,50113300.0
921.145,51024700.0
921.236,52737400.0
921.327,53976900.0
921.418,54823700.0
921.509,55434900.0
921.691,56272200.0
921.872,56891200.0
922.117,57585200.0
922.506,58154200.0
922.603,58028100.0
922.7,57647800.0
922.798,56758300.0
922.895,55175400.0
922.945,54085200.0
922.992,53143100.0
923.039,52765700.0
923.086,52820800.0
923.089,52824800.0
923.114,52859000.0
923.138,52891800.0
923.144,52899900.0
923.15,52908200.0
923.156,52916400.0
923.162,52924500.0
923.187,52958800.0
923.211,52991500.0
923.261,53069100.0
923.308,53583600.0
923.358,54780700.0
923.405,56011900.0
923.499,58099700.0
923.546,58913000.0
923.593,59575600.0
923.687,60662600.0
923.794,61549300.0
923.901,62220400.0
924.114,63277700.0
924.183,63570500.0
924.321,64121200.0
924.436,64549700.0
924.666,65330300.0
924.688,65401400.0
924.738,65556000.0
924.838,65851200.0
924.939,66126000.0
925.141,66576900.0
925.189,66657200.0
925.285,66772500.0
925.476,66690800.0
925.579,66328800.0
925.682,65600300.0
925.785,64379000.0
925.877,62615300.0
925.97,60192600.0
926.067,57558000.0
926.116,57111600.0
926.165,57176600.0
926.189,57211900.0
926.214,57248500.0
926.22,57257300.0
926.226,57266200.0
926.232,57275000.0
926.238,57283700.0
926.263,57320500.0
926.287,57355800.0
926.337,57437200.0
926.385,58031700.0
926.435,59498500.0
926.482,61040900.0
926.576,63989600.0
926.67,66379400.0
926.764,68263200.0
926.873,69926000.0
926.982,71182700.0
927.091,72140200.0
927.263,73371900.0
927.607,75194500.0
927.875,76351000.0
928.411,78480500.0
928.487,78759100.0
928.639,79301000.0
928.943,80314100.0
929.097,80775000.0
929.405,81469700.0
929.706,81560500.0
929.856,81123600.0
930.007,80038500.0
930.098,78909600.0
930.189,77242400.0
930.28,74963300.0
930.371,72128400.0
930.463,68876300.0
930.491,67824200.0
930.548,65793700.0
930.589,64571900.0
930.63,64090900.0
930.671,64139900.0
930.687,64166100.0
930.711,64205100.0
930.736,64245900.0
930.742,64255700.0
930.748,64265400.0
930.754,64275300.0
930.76,64285000.0
930.785,64325700.0
930.809,64365000.0
930.859,64451500.0
930.907,65095600.0
930.957,66810300.0
931.005,68739500.0
931.101,72690600.0
931.197,76432800.0
931.293,79716700.0
931.398,82596700.0
931.503,84840100.0
931.608,86591800.0
931.712,88093500.0
931.79,89025500.0
931.945,90554100.0
932.255,92978100.0
932.566,94870400.0
932.876,96533600.0
933.033,97341100.0
933.347,98889100.0
933.975,101785000.0
934.276,103121000.0
934.878,105692000.0
935.514,108134000.0
935.824,109066000.0
936.133,109591000.0
936.443,109360000.0
936.753,107377000.0
936.852,106060000.0
936.951,104290000.0
937.049,101917000.0
937.148,98937200.0
937.247,95227000.0
937.346,90721000.0
937.543,81145300.0
937.594,78881200.0
937.642,77106100.0
937.69,76531100.0
937.738,76619500.0
937.741,76625200.0
937.766,76672900.0
937.791,76720800.0
937.797,76732200.0
937.803,76743700.0
937.809,76755200.0
937.815,76766700.0
937.84,76814600.0
937.865,76862500.0
937.915,76961300.0
937.964,77729600.0
938.014,79798400.0
938.062,82157000.0
938.158,87262500.0
938.35,97727100.0
938.458,102749000.0
938.566,106984000.0
938.674,110621000.0
938.781,113599000.0
938.853,115295000.0
938.996,118026000.0
939.14,120336000.0
939.426,123752000.0
939.713,126442000.0
940.0,128665000.0
940.434,131450000.0
941.303,136401000.0
942.015,140147000.0
942.894,144788000.0
943.773,149486000.0
944.625,153935000.0
945.478,158177000.0
947.079,164633000.0
947.479,165032000.0
947.879,164501000.0
948.08,163476000.0
948.28,161437000.0
948.48,157890000.0
948.68,152645000.0
948.88,145042000.0
949.08,134613000.0
949.28,121461000.0
949.48,108470000.0
949.53,105657000.0
949.58,103340000.0
949.63,102659000.0
949.68,102783000.0
949.705,102845000.0
949.73,102908000.0
949.737,102925000.0
949.743,102940000.0
949.749,102955000.0
949.755,102970000.0
949.781,103035000.0
949.806,103098000.0
949.856,103224000.0
949.906,104163000.0
949.956,106756000.0
950.006,109859000.0
950.106,116750000.0
950.206,124203000.0
950.406,139023000.0
950.456,142328000.0
950.556,148561000.0
950.656,154221000.0
950.756,159060000.0
950.806,161262000.0
950.906,165404000.0
951.107,172241000.0
951.307,177536000.0
951.508,181604000.0
951.708,184814000.0
952.109,190407000.0
952.407,194069000.0
953.003,199642000.0
953.599,204396000.0
954.008,207371000.0
954.825,213041000.0
955.609,218444000.0
957.177,229444000.0
957.211,229689000.0
957.28,230163000.0
957.418,231098000.0
957.694,232973000.0
958.246,236762000.0
958.812,240703000.0
959.945,248766000.0
960.413,252171000.0
960.776,254865000.0
961.14,257583000.0
961.376,259363000.0
961.611,261149000.0
962.081,264766000.0
963.021,272063000.0
963.251,273817000.0
963.71,277355000.0
964.629,284521000.0
964.89,286593000.0
965.412,290788000.0
966.456,299349000.0
966.53,299967000.0
966.678,301206000.0
966.975,303700000.0
967.567,308751000.0
968.169,313965000.0
969.372,324465000.0
969.809,328194000.0
970.683,335718000.0
971.448,341873000.0
971.858,343641000.0
972.268,343594000.0
972.37,343446000.0
972.473,343347000.0
972.499,343329000.0
972.524,343309000.0
972.531,343305000.0
972.537,343302000.0
972.543,343298000.0
972.55,343294000.0
972.575,343279000.0
972.601,343267000.0
972.653,343246000.0
972.703,343457000.0
972.803,343944000.0
972.806,343959000.0
972.856,344205000.0
972.956,344696000.0
973.156,345678000.0
973.216,345963000.0
973.336,346651000.0
973.576,349566000.0
973.626,350173000.0
973.726,351392000.0
973.926,353853000.0
974.326,359366000.0
975.126,370835000.0
975.265,372864000.0
975.544,376620000.0
976.101,384074000.0
976.905,393965000.0
978.512,413354000.0
978.544,413736000.0
978.608,414495000.0
978.735,416003000.0
978.989,418968000.0
979.498,424915000.0
980.184,433115000.0
981.556,449485000.0
981.823,452630000.0
982.357,458966000.0
983.424,471877000.0
983.463,472349000.0
983.54,473298000.0
983.694,475200000.0
984.003,479032000.0
984.62,486747000.0
985.102,492793000.0
986.065,505119000.0
986.742,513978000.0
988.095,532011000.0
988.381,535863000.0
988.953,543671000.0
990.021,558578000.0
991.66,581910000.0
993.3,606404000.0
996.58,657875000.0
996.65,659026000.0
996.79,661328000.0
997.07,665940000.0
997.63,675149000.0
998.75,694010000.0
1000.0,715755000.0
1001.912,749653000.0
1003.824,785161000.0
1005.553,818110000.0
1007.282,852360000.0
1009.011,887575000.0
1010.74,923335000.0
1012.469,958723000.0
1014.199,993105000.0
1015.928,1026410000.0
1017.657,1053830000.0
1018.521,1063710000.0
1019.386,1069000000.0
1020.25,1067040000.0
1021.115,1055300000.0
1021.979,1031460000.0
1022.844,990168000.0
1023.276,961503000.0
1023.708,928915000.0
1024.141,886728000.0
1024.573,827919000.0
1024.624,819089000.0
1024.674,810366000.0
1024.724,801860000.0
1024.774,792767000.0
1024.824,783113000.0
1024.874,772574000.0
1024.924,761837000.0
1024.974,750200000.0
1025.006,742250000.0
1025.069,727817000.0
1025.132,710573000.0
1025.196,691563000.0
1025.322,648953000.0
1025.438,608475000.0
1025.546,573308000.0
1025.6,561122000.0
1025.654,558151000.0
1025.681,558438000.0
1025.708,558746000.0
1025.715,558825000.0
1025.72,558883000.0
1025.722,558906000.0
1025.729,558986000.0
1025.736,559065000.0
1025.763,559373000.0
1025.79,559683000.0
1025.844,561861000.0
1025.871,566153000.0
1025.898,572865000.0
1025.952,590178000.0
1026.005,609650000.0
1026.056,628468000.0
1026.106,647632000.0
1026.156,667129000.0
1026.206,686400000.0
1026.256,704294000.0
1026.306,721692000.0
1026.356,737846000.0
1026.406,752642000.0
1026.438,761050000.0
1026.501,778247000.0
1026.628,810411000.0
1026.749,837339000.0
1026.87,862364000.0
1026.92,872565000.0
1026.97,882485000.0
1027.02,891713000.0
1027.07,900069000.0
1027.12,908628000.0
1027.17,917026000.0
1027.22,925303000.0
1027.27,933489000.0
1027.32,941590000.0
1027.37,949704000.0
1027.421,957894000.0
1027.471,966079000.0
1027.521,973485000.0
1027.571,979806000.0
1027.621,986085000.0
1027.671,992227000.0
1027.721,998288000.0
1027.771,1004370000.0
1027.821,1010520000.0
1027.871,1016740000.0
1027.921,1023020000.0
1027.971,1029310000.0
1028.021,1035310000.0
1028.071,1040750000.0
1028.121,1046250000.0
1028.171,1051850000.0
1028.221,1057750000.0
1028.271,1063700000.0
1028.321,1069700000.0
1028.371,1075720000.0
1028.422,1081840000.0
1028.472,1088010000.0
1028.522,1093770000.0
1028.572,1098890000.0
1028.6,1101800000.0
1028.657,1107630000.0
1028.77,1119370000.0
1028.996,1143210000.0
1029.45,1184800000.0
1029.903,1223350000.0
1030.329,1257390000.0
1031.182,1324910000.0
1032.058,1388590000.0
1032.922,1440510000.0
1033.787,1486540000.0
1035.516,1565160000.0
1037.245,1655420000.0
1037.296,1658110000.0
1037.346,1660740000.0
1037.396,1663430000.0
1037.446,1666140000.0
1037.496,1668850000.0
1037.546,1671310000.0
1037.596,1673780000.0
1037.646,1676220000.0
1037.696,1678670000.0
1037.746,1681130000.0
1037.797,1683590000.0
1037.847,1686040000.0
1037.897,1688480000.0
1037.947,1690930000.0
1037.997,1693350000.0
1038.047,1695710000.0
1038.097,1698050000.0
1038.147,1700420000.0
1038.197,1702760000.0
1038.247,1705130000.0
1038.297,1707460000.0
1038.347,1709830000.0
1038.397,1712200000.0
1038.447,1714560000.0
1038.497,1716950000.0
1038.547,1719260000.0
1038.597,1721580000.0
1038.647,1723890000.0
1038.697,1726210000.0
1038.747,1728530000.0
1038.797,1730850000.0
1038.848,1733190000.0
1038.898,1735500000.0
1038.948,1737800000.0
1038.975,1739070000.0
1039.03,1741530000.0
1039.139,1746330000.0
1039.358,1755980000.0
1039.795,1774960000.0
1040.67,1812950000.0
1040.704,1814430000.0
1040.771,1817430000.0
1040.906,1823410000.0
1041.176,1835410000.0
1041.715,1858840000.0
1042.433,1889770000.0
1043.87,1952870000.0
1044.162,1966020000.0
1044.747,1992610000.0
1045.892,2046070000.0
1047.621,2128110000.0
1048.81,2185150000.0
1050.0,2244010000.0
1052.38,2363060000.0
1055.0,2499020000.0
1057.62,2639270000.0
1060.0,2776250000.0
1062.38,2926580000.0
1064.76,3083670000.0
1065.0,3100020000.0
1065.48,3132360000.0
1066.441,3198090000.0
1068.363,3328430000.0
1070.0,3443240000.0
1073.273,3689360000.0
1075.0,3819760000.0
1078.453,4101850000.0
1080.0,4245160000.0
1081.538,4388420000.0
1083.077,4531050000.0
1086.155,4832990000.0
1086.538,4872240000.0
1087.304,4951490000.0
1088.835,5115200000.0
1090.0,5237050000.0
1092.33,5491210000.0
1095.0,5804220000.0
1097.67,6136830000.0
1100.0,6426890000.0
1104.661,7059990000.0
1105.0,7109340000.0
1105.679,7206960000.0
1107.036,7393080000.0
1109.751,7770780000.0
1110.0,7806530000.0
1110.498,7878970000.0
1111.494,8024110000.0
1113.486,8323680000.0
1115.0,8560540000.0
1118.027,8995570000.0
1120.0,9269760000.0
1123.945,9769990000.0
1125.0,9891530000.0
1127.109,10070600000.0
1129.219,10207300000.0
1130.0,10247900000.0
1131.154,10306500000.0
1132.308,10344200000.0
1134.616,10406300000.0
1136.154,10424500000.0
1139.23,10456600000.0
1140.0,10457800000.0
1141.539,10484500000.0
1144.617,10577800000.0
1145.0,10596300000.0
1145.766,10621400000.0
1147.297,10697400000.0
1150.0,10850800000.0
1152.703,11028600000.0
1155.406,11205400000.0
1158.109,11373500000.0
1160.812,11541900000.0
1163.516,11696100000.0
1165.769,11828400000.0
1170.276,12108500000.0
1174.783,12431500000.0
1179.29,12863300000.0
1181.538,13136500000.0
1185.628,13725900000.0
1189.718,14380300000.0
1191.767,14693000000.0
1193.816,14975300000.0
1195.866,15216100000.0
1197.915,15421900000.0
1199.964,15616500000.0
1202.014,15786100000.0
1204.063,15906500000.0
1206.113,15869000000.0
1207.137,15774000000.0
1208.162,15614300000.0
1208.212,15606600000.0
1208.262,15599000000.0
1208.312,15591700000.0
1208.362,15584400000.0
1208.412,15577300000.0
1208.462,15570400000.0
1208.512,15562300000.0
1208.562,15551500000.0
1208.612,15541100000.0
1208.662,15531000000.0
1208.713,15521200000.0
1208.763,15511600000.0
1208.813,15501800000.0
1208.863,15492100000.0
1208.913,15482600000.0
1208.963,15474500000.0
1209.013,15465400000.0
1209.063,15450900000.0
1209.113,15436900000.0
1209.163,15423300000.0
1209.213,15410100000.0
1209.263,15397400000.0
1209.313,15385000000.0
1209.363,15372800000.0
1209.413,15360900000.0
1209.463,15349300000.0
1209.513,15336600000.0
1209.563,15321100000.0
1209.613,15306000000.0
1209.663,15291400000.0
1209.714,15279500000.0
1209.764,15267600000.0
1209.814,15256000000.0
1209.864,15244700000.0
1209.914,15233900000.0
1209.964,15223400000.0
1210.014,15212500000.0
1210.064,15200300000.0
1210.114,15188500000.0
1210.164,15177100000.0
1210.211,15166700000.0
1210.305,15146600000.0
1210.494,15109400000.0
1210.871,14994000000.0
1211.625,14763300000.0
1212.261,14609000000.0
1213.534,14393800000.0
1214.31,14347200000.0
1214.822,14358900000.0
1215.078,14346600000.0
1215.335,14201500000.0
1215.399,14092500000.0
1215.463,13948400000.0
1215.513,13836500000.0
1215.563,13784200000.0
1215.591,13785000000.0
1215.623,13791000000.0
1215.655,13797200000.0
1215.663,13798700000.0
1215.67,13800100000.0
1215.679,13801800000.0
1215.687,13803300000.0
1215.719,13809400000.0
1215.751,13815800000.0
1215.815,13873500000.0
1215.879,14051900000.0
1215.943,14247400000.0
1216.007,14415200000.0
1216.135,14664200000.0
1216.262,14854800000.0
1216.518,15179000000.0
1216.52,15181400000.0
1216.57,15234700000.0
1216.62,15287900000.0
1216.67,15343200000.0
1216.72,15399500000.0
1216.77,15455800000.0
1216.82,15513700000.0
1216.87,15573600000.0
1216.92,15637200000.0
1216.97,15704200000.0
1217.021,15768100000.0
1217.032,15780600000.0
1217.082,15835900000.0
1217.132,15895600000.0
1217.182,15958200000.0
1217.232,16023000000.0
1217.282,16090200000.0
1217.332,16158200000.0
1217.382,16228200000.0
1217.432,16304800000.0
1217.482,16388600000.0
1217.532,16456100000.0
1217.583,16514400000.0
1217.633,16572900000.0
1217.683,16634500000.0
1217.733,16701500000.0
1217.783,16770800000.0
1217.833,16842200000.0
1217.883,16915800000.0
1217.933,16992600000.0
1217.983,17072600000.0
1218.033,17140500000.0
1218.083,17204500000.0
1218.133,17272600000.0
1218.183,17342600000.0
1218.233,17414400000.0
1218.283,17488200000.0
1218.333,17564600000.0
1218.383,17644300000.0
1218.433,17732700000.0
1218.483,17822300000.0
1218.533,17889100000.0
1218.583,17946500000.0
1218.634,18004400000.0
1218.684,18063700000.0
1218.734,18124500000.0
1218.784,18186800000.0
1218.834,18250700000.0
1218.884,18316300000.0
1218.934,18383800000.0
1218.984,18456600000.0
1219.034,18525400000.0
1219.081,18587600000.0
1219.175,18716000000.0
1219.364,18988400000.0
1219.741,19512500000.0
1220.118,19973400000.0
1220.495,20335500000.0
1221.131,21007100000.0
1221.767,21578900000.0
1222.404,21932100000.0
1222.792,22253600000.0
1223.18,22600400000.0
1223.956,23233400000.0
1224.593,23659800000.0
1225.229,24019800000.0
1226.501,24592000000.0
1227.279,24890000000.0
1228.834,25523500000.0
1229.328,25731500000.0
1230.316,26176000000.0
1231.378,26645600000.0
1233.427,27567100000.0
1235.476,28479500000.0
1237.526,29377200000.0
1239.575,30245800000.0
1241.625,31122000000.0
1245.725,32967500000.0
1249.825,34926000000.0
1250.812,35384000000.0
1252.786,36386200000.0
1256.733,38419800000.0
1260.0,40268900000.0
1263.267,42311400000.0
1265.0,43392000000.0
1268.466,45488100000.0
1270.0,46496000000.0
1273.068,48536000000.0
1275.0,49805000000.0
1278.863,52651700000.0
1280.0,53481500000.0
1282.273,55120700000.0
1285.0,56989600000.0
1287.727,58959200000.0
1290.0,60660800000.0
1294.547,64324000000.0
1295.0,64709600000.0
1295.906,65488300000.0
1297.719,67043500000.0
1300.0,68994000000.0
1305.0,73213000000.0
1310.0,77646000000.0
1315.0,82331400000.0
1320.0,87263500000.0
1325.0,92471500000.0
1330.0,97991100000.0
1335.0,103786000000.0
1340.0,109794000000.0
1345.0,116026000000.0
1350.0,122565000000.0
1355.0,129481000000.0
1360.0,136644000000.0
1365.0,144145000000.0
1370.0,152037000000.0
1374.231,158928000000.0
1378.462,166050000000.0
1379.231,167376000000.0
1380.0,168711000000.0
1381.538,171411000000.0
1384.614,176921000000.0
1385.0,177622000000.0
1385.771,179031000000.0
1387.314,181874000000.0
1390.0,186908000000.0
1395.0,196593000000.0
1400.0,206697000000.0
1405.0,217251000000.0
1410.0,228307000000.0
1415.0,239817000000.0
1420.0,251735000000.0
1425.0,264136000000.0
1430.0,277047000000.0
1435.0,290371000000.0
1440.0,304054000000.0
1445.0,318176000000.0
1450.0,332801000000.0
1455.0,347930000000.0
1460.0,363624000000.0
1465.0,379889000000.0
1470.0,396979000000.0
1473.462,409293000000.0
1476.923,422007000000.0
1478.462,427797000000.0
1480.0,433679000000.0
1483.076,445724000000.0
1485.0,453452000000.0
1488.848,469311000000.0
1490.0,474145000000.0
1492.304,483903000000.0
1495.0,495413000000.0
1500.0,516943000000.0
1505.0,538893000000.0
1510.0,561825000000.0
1515.0,586155000000.0
1520.0,611604000000.0
1525.0,637083000000.0
1530.0,661454000000.0
1535.0,684683000000.0
1540.0,707917000000.0
1545.0,732475000000.0
1550.0,759075000000.0
1555.0,787666000000.0
1560.0,817556000000.0
1565.0,847715000000.0
1570.0,877379000000.0
1572.692,893129000000.0
1575.385,908819000000.0
1577.692,922343000000.0
1580.0,936042000000.0
1584.616,964335000000.0
1585.0,966773000000.0
1585.768,971665000000.0
1587.304,981606000000.0
1590.0,999611000000.0
1595.0,1035200000000.0
1600.0,1073940000000.0
1605.0,1116130000000.0
1610.0,1161980000000.0
1615.0,1211760000000.0
1620.0,1265760000000.0
1625.0,1324170000000.0
1630.0,1387360000000.0
1635.0,1455990000000.0
1640.0,1530670000000.0
1645.0,1612030000000.0
1650.0,1701000000000.0
1655.0,1798180000000.0
1660.0,1905510000000.0
1665.0,2024800000000.0
1670.0,2159040000000.0
1671.923,2214630000000.0
1673.846,2274890000000.0
1676.923,2382920000000.0
1680.0,2507450000000.0
1683.077,2648080000000.0
1685.0,2756480000000.0
1686.923,2873720000000.0
1688.461,2978010000000.0
1690.0,3102780000000.0
1691.539,3234450000000.0
1693.077,3379390000000.0
1694.616,3551360000000.0
1695.0,3599990000000.0
1695.769,3699650000000.0
1697.306,3902990000000.0
1698.653,4110430000000.0
1700.0,4352870000000.0
1701.347,4611010000000.0
1702.694,4889780000000.0
1703.847,5167320000000.0
1705.0,5483840000000.0
1707.306,6159810000000.0
1708.458,6558750000000.0
1709.611,7017190000000.0
1710.0,7186410000000.0
1710.777,7525700000000.0
1712.332,8201770000000.0
1713.666,8882000000000.0
1715.0,9671520000000.0
1717.668,11340500000000.0
1718.834,12191200000000.0
1720.0,13154200000000.0
1722.332,15122300000000.0
1723.666,16399500000000.0
1725.0,17848600000000.0
1727.668,20786400000000.0
1728.834,22229600000000.0
1730.0,23821200000000.0
1732.332,26934000000000.0
1733.666,28881300000000.0
1735.0,31029500000000.0
1737.668,35217100000000.0
1738.834,37205100000000.0
1740.0,39347900000000.0
1742.332,43424100000000.0
1745.0,48535600000000.0
1747.668,53552800000000.0
1750.0,58289500000000.0
1752.332,62830900000000.0
1756.996,72184300000000.0
1761.154,80336200000000.0
1765.312,88168200000000.0
1769.47,95439000000000.0
1772.308,100189000000000.0
1777.984,109136000000000.0
1783.66,117278000000000.0
1789.336,124654000000000.0
1795.012,131318000000000.0
1800.688,137332000000000.0
1806.364,142764000000000.0
1812.04,147765000000000.0
1821.539,155371000000000.0
1831.038,162222000000000.0
1840.536,168534000000000.0
1859.534,180132000000000.0
1870.769,186620000000000.0
