Wavelength,Flux
900.0,2733370.0
903.442,3028620.0
904.998,3171480.0
906.554,3320500.0
908.11,3475910.0
909.667,3638100.0
910.703,3749830.0
911.74,3864800.0
911.84,3876060.0
912.0,3894130.0
912.31,3929370.0
912.779,3983240.0
913.717,4093020.0
914.335,4166850.0
915.329,4288170.0
915.824,4349790.0
915.892,4358330.0
916.028,4375490.0
916.3,4409900.0
916.429,4426210.0
916.686,4459600.0
917.181,4522900.0
917.448,4560180.0
917.982,4629580.0
918.129,4647560.0
918.423,4696270.0
919.004,4782650.0
919.351,4812890.0
919.698,4889730.0
920.045,4951170.0
920.56,5031240.0
920.761,5035490.0
920.963,5039240.0
921.064,5053760.0
921.165,5097390.0
921.265,5138810.0
921.366,5167300.0
921.467,5190990.0
921.568,5211890.0
921.668,5231510.0
921.769,5250570.0
921.87,5269370.0
921.971,5287810.0
922.071,5306200.0
922.117,5314540.0
922.208,5331010.0
922.39,5362900.0
922.506,5381760.0
922.738,5408430.0
922.895,5395280.0
922.992,5357190.0
923.089,5352680.0
923.114,5356460.0
923.138,5360100.0
923.144,5361010.0
923.15,5361930.0
923.156,5362840.0
923.162,5363740.0
923.187,5367550.0
923.211,5371190.0
923.261,5379590.0
923.308,5406170.0
923.402,5479070.0
923.405,5481250.0
923.455,5511460.0
923.555,5555120.0
923.755,5613990.0
923.794,5623460.0
923.872,5641360.0
924.028,5675590.0
924.183,5707970.0
924.436,5759060.0
924.688,5808840.0
924.939,5857920.0
925.189,5906100.0
925.579,5970500.0
925.774,5982190.0
925.97,5923100.0
926.067,5849510.0
926.116,5830500.0
926.164,5837710.0
926.189,5841800.0
926.214,5845900.0
926.22,5846890.0
926.226,5847880.0
926.232,5848860.0
926.238,5849850.0
926.263,5853960.0
926.287,5857910.0
926.337,5866970.0
926.385,5902480.0
926.481,6012810.0
926.532,6062420.0
926.632,6134080.0
926.832,6220940.0
926.873,6234250.0
926.955,6258640.0
927.119,6302460.0
927.263,6338090.0
927.551,6405690.0
927.875,6479480.0
928.487,6617310.0
929.097,6754380.0
929.706,6881980.0
930.098,6928000.0
930.294,6897230.0
930.49,6755220.0
930.541,6695040.0
930.589,6640710.0
930.637,6616130.0
930.685,6624150.0
930.687,6624530.0
930.711,6628960.0
930.736,6633570.0
930.742,6634670.0
930.748,6635770.0
930.754,6636890.0
930.76,6637990.0
930.785,6642600.0
930.809,6647050.0
930.859,6657100.0
930.907,6699860.0
931.003,6850830.0
931.005,6854120.0
931.055,6929820.0
931.155,7048100.0
931.255,7136020.0
931.355,7201970.0
931.398,7225850.0
931.484,7266590.0
931.657,7333890.0
931.79,7378970.0
932.057,7459430.0
932.591,7609780.0
933.033,7730870.0
933.918,7974220.0
934.276,8074620.0
934.992,8277710.0
935.514,8425410.0
936.558,8680450.0
936.753,8704530.0
936.948,8701730.0
937.143,8651970.0
937.148,8650040.0
937.198,8627590.0
937.298,8553440.0
937.398,8443950.0
937.498,8301790.0
937.544,8226030.0
937.636,8076720.0
937.642,8069170.0
937.692,8037010.0
937.741,8047100.0
937.766,8052600.0
937.791,8058120.0
937.797,8059430.0
937.803,8060750.0
937.809,8062080.0
937.815,8063400.0
937.84,8068910.0
937.865,8074430.0
937.915,8086430.0
937.964,8140620.0
938.014,8239730.0
938.062,8343810.0
938.158,8543670.0
938.35,8867490.0
938.458,8998720.0
938.566,9105490.0
938.781,9268290.0
938.853,9314200.0
938.996,9392410.0
939.283,9520440.0
939.856,9734100.0
940.434,9936880.0
941.59,10328300.0
942.015,10473500.0
942.866,10768800.0
942.894,10778700.0
942.951,10798500.0
943.064,10838300.0
943.29,10918600.0
943.742,11081600.0
943.773,11092900.0
943.836,11115600.0
943.961,11160400.0
944.211,11248300.0
944.625,11395200.0
945.454,11691800.0
945.478,11700500.0
945.528,11718600.0
945.628,11754700.0
945.828,11827200.0
946.028,11899700.0
946.228,11972300.0
946.428,12044700.0
946.628,12116600.0
946.828,12187700.0
947.028,12257700.0
947.079,12275300.0
947.181,12310100.0
947.384,12377900.0
947.792,12498500.0
948.199,12568900.0
948.606,12545800.0
948.68,12517000.0
948.828,12424600.0
948.954,12309100.0
949.08,12143400.0
949.206,11928200.0
949.332,11667000.0
949.48,11339300.0
949.58,11130000.0
949.63,11090700.0
949.68,11104400.0
949.705,11111800.0
949.73,11119100.0
949.737,11121200.0
949.743,11123000.0
949.749,11124800.0
949.755,11126500.0
949.781,11134200.0
949.806,11141700.0
949.856,11157600.0
949.906,11227000.0
949.956,11354700.0
950.006,11498500.0
950.056,11645100.0
950.156,11930900.0
950.356,12472200.0
950.406,12586800.0
950.506,12802600.0
950.706,13147200.0
950.806,13291000.0
951.005,13517100.0
951.404,13837300.0
951.803,14081200.0
952.202,14298900.0
952.407,14399800.0
952.816,14593200.0
953.635,14966500.0
954.008,15135600.0
954.753,15476600.0
955.609,15867300.0
957.211,16622700.0
958.812,17389300.0
960.413,18194400.0
960.776,18381700.0
961.14,18571100.0
961.376,18694700.0
961.611,18818600.0
962.081,19069200.0
963.021,19581500.0
963.251,19704700.0
963.71,19953800.0
964.629,20462200.0
964.89,20609300.0
965.412,20906500.0
966.456,21515800.0
966.53,21560000.0
966.678,21648300.0
966.975,21826400.0
967.567,22187400.0
968.169,22558100.0
969.372,23319300.0
969.809,23598400.0
970.683,24154600.0
971.448,24647300.0
971.858,24898500.0
972.268,25126600.0
972.37,25177700.0
972.473,25229500.0
972.499,25242600.0
972.524,25255100.0
972.531,25258800.0
972.537,25261900.0
972.543,25265000.0
972.55,25268500.0
972.575,25281300.0
972.601,25294700.0
972.653,25321400.0
972.703,25351100.0
972.803,25412000.0
972.806,25413900.0
972.856,25444400.0
972.956,25505500.0
973.156,25628300.0
973.216,25665200.0
973.336,25741200.0
973.576,25919600.0
973.626,25957000.0
973.726,26032000.0
973.926,26183000.0
974.326,26498000.0
975.126,27138400.0
975.265,27251200.0
975.544,27472900.0
976.101,27918900.0
976.905,28566600.0
978.512,29865200.0
978.544,29891300.0
978.608,29943400.0
978.735,30047900.0
978.989,30257800.0
979.498,30684500.0
980.184,31268500.0
981.556,32457200.0
981.823,32694300.0
982.357,33175100.0
983.424,34151200.0
983.463,34186900.0
983.54,34258400.0
983.694,34402100.0
984.003,34691800.0
984.62,35280000.0
985.102,35749100.0
986.065,36702900.0
986.742,37381800.0
988.095,38789100.0
988.381,39095200.0
988.953,39713100.0
990.021,40877100.0
991.66,42747500.0
993.3,44686700.0
996.58,48826700.0
996.65,48917900.0
996.79,49100500.0
997.07,49468500.0
997.63,50217200.0
998.75,51762300.0
1000.0,53497500.0
1001.912,56258600.0
1003.824,59134200.0
1005.553,61837500.0
1007.282,64642100.0
1009.011,67539000.0
1010.74,70557000.0
1012.469,73610900.0
1014.199,76679400.0
1015.928,79710200.0
1017.657,82821500.0
1019.386,85551500.0
1020.25,86539500.0
1021.115,87138000.0
1021.979,87109800.0
1022.844,86006000.0
1023.708,83976600.0
1024.573,81046600.0
1024.624,80798800.0
1024.674,80540400.0
1024.724,80255900.0
1024.774,79965600.0
1024.824,79674300.0
1024.874,79347400.0
1024.924,79022900.0
1024.974,78670300.0
1025.006,78424100.0
1025.069,77913300.0
1025.196,76685300.0
1025.317,75188400.0
1025.438,73501900.0
1025.546,71913900.0
1025.6,71261000.0
1025.654,71106800.0
1025.681,71147200.0
1025.708,71190200.0
1025.715,71201400.0
1025.72,71209300.0
1025.722,71212600.0
1025.729,71223800.0
1025.736,71234800.0
1025.763,71278100.0
1025.79,71321400.0
1025.844,71525400.0
1025.898,72232600.0
1025.952,73196000.0
1026.006,74197400.0
1026.115,76115300.0
1026.332,79515000.0
1026.438,80850400.0
1026.65,83108400.0
1026.87,85145000.0
1027.31,88525700.0
1027.749,91651700.0
1028.6,97368200.0
1029.451,102480000.0
1030.301,106774000.0
1030.329,106903000.0
1030.385,107164000.0
1030.496,107687000.0
1030.719,108715000.0
1031.164,110767000.0
1032.055,114573000.0
1032.058,114587000.0
1032.108,114777000.0
1032.158,114968000.0
1032.208,115160000.0
1032.258,115350000.0
1032.308,115542000.0
1032.358,115732000.0
1032.408,115923000.0
1032.458,116113000.0
1032.508,116303000.0
1032.558,116486000.0
1032.609,116669000.0
1032.659,116851000.0
1032.709,117034000.0
1032.759,117216000.0
1032.809,117399000.0
1032.859,117579000.0
1032.909,117760000.0
1032.959,117940000.0
1033.009,118121000.0
1033.059,118296000.0
1033.109,118471000.0
1033.159,118647000.0
1033.209,118823000.0
1033.259,118997000.0
1033.309,119172000.0
1033.359,119347000.0
1033.409,119521000.0
1033.459,119695000.0
1033.509,119869000.0
1033.559,120043000.0
1033.609,120214000.0
1033.66,120387000.0
1033.71,120560000.0
1033.76,120734000.0
1033.787,120830000.0
1033.842,121023000.0
1033.951,121407000.0
1034.17,122125000.0
1034.607,123491000.0
1035.482,126250000.0
1035.516,126361000.0
1035.583,126584000.0
1035.718,127032000.0
1035.988,127934000.0
1036.527,129816000.0
1037.246,132382000.0
1038.684,137457000.0
1038.975,138485000.0
1039.556,140513000.0
1040.704,144425000.0
1042.433,150490000.0
1044.162,156770000.0
1045.892,163281000.0
1047.621,169816000.0
1048.81,174490000.0
1050.0,179338000.0
1052.38,189407000.0
1055.0,200875000.0
1057.62,213274000.0
1060.0,224889000.0
1064.76,250538000.0
1065.0,251893000.0
1065.48,254551000.0
1066.441,259968000.0
1068.363,271215000.0
1070.0,281260000.0
1073.273,302537000.0
1075.0,314034000.0
1078.453,338850000.0
1080.0,351056000.0
1081.538,362827000.0
1083.077,375080000.0
1086.155,401233000.0
1086.538,404685000.0
1087.304,411760000.0
1088.835,425693000.0
1090.0,436283000.0
1092.33,458432000.0
1095.0,485695000.0
1097.67,514837000.0
1100.0,539518000.0
1104.661,593537000.0
1105.0,597767000.0
1105.679,606300000.0
1107.036,622757000.0
1109.751,655939000.0
1110.0,658986000.0
1110.498,665112000.0
1111.494,677321000.0
1113.486,702468000.0
1115.0,721862000.0
1118.027,758563000.0
1120.0,781239000.0
1123.945,822514000.0
1125.0,832762000.0
1127.109,850728000.0
1130.0,873096000.0
1131.154,882620000.0
1132.308,891707000.0
1134.616,911612000.0
1136.154,925533000.0
1139.23,955895000.0
1140.0,963527000.0
1141.539,980016000.0
1144.617,1015060000.0
1145.0,1019760000.0
1145.766,1028590000.0
1147.297,1047440000.0
1150.0,1081890000.0
1152.703,1117690000.0
1155.406,1154060000.0
1158.109,1190720000.0
1160.812,1228830000.0
1163.516,1267510000.0
1165.769,1301930000.0
1170.276,1378480000.0
1174.783,1461770000.0
1179.29,1553610000.0
1181.538,1603780000.0
1185.628,1701770000.0
1189.718,1807780000.0
1191.767,1861800000.0
1193.816,1914990000.0
1195.866,1967790000.0
1197.915,2020270000.0
1199.964,2073510000.0
1202.014,2127380000.0
1204.063,2180160000.0
1206.113,2229580000.0
1208.162,2272670000.0
1210.211,2311390000.0
1212.261,2346790000.0
1214.31,2393780000.0
1214.822,2409930000.0
1215.335,2425320000.0
1215.463,2424510000.0
1215.591,2423170000.0
1215.623,2424350000.0
1215.655,2425540000.0
1215.663,2425840000.0
1215.67,2426100000.0
1215.679,2426430000.0
1215.687,2426730000.0
1215.719,2427920000.0
1215.751,2429130000.0
1215.815,2433770000.0
1215.879,2441670000.0
1216.007,2454830000.0
1216.263,2474970000.0
1216.52,2494900000.0
1217.032,2534610000.0
1218.056,2619100000.0
1219.081,2706960000.0
1221.131,2881000000.0
1223.18,3025800000.0
1225.229,3166490000.0
1227.279,3276210000.0
1229.328,3385830000.0
1231.378,3502320000.0
1233.427,3620220000.0
1235.476,3739080000.0
1237.526,3859450000.0
1239.575,3980490000.0
1241.625,4104180000.0
1245.725,4363110000.0
1249.825,4637760000.0
1250.812,4704560000.0
1252.786,4844440000.0
1256.733,5132470000.0
1260.0,5386810000.0
1263.267,5658450000.0
1265.0,5805390000.0
1268.466,6102090000.0
1270.0,6240430000.0
1273.068,6523300000.0
1275.0,6704290000.0
1278.863,7091650000.0
1280.0,7207710000.0
1282.273,7441920000.0
1285.0,7722720000.0
1287.727,8015510000.0
1290.0,8267980000.0
1294.547,8802270000.0
1295.0,8857820000.0
1295.906,8969910000.0
1297.719,9196260000.0
1300.0,9485000000.0
1305.0,10131400000.0
1310.0,10815700000.0
1315.0,11541500000.0
1320.0,12309700000.0
1325.0,13123800000.0
1330.0,13987800000.0
1335.0,14901000000.0
1340.0,15859500000.0
1345.0,16865700000.0
1350.0,17927100000.0
1355.0,19051000000.0
1360.0,20229100000.0
1365.0,21470100000.0
1370.0,22779800000.0
1374.231,23935400000.0
1378.462,25138400000.0
1379.231,25362700000.0
1380.0,25588900000.0
1381.538,26046500000.0
1384.614,26982700000.0
1385.0,27102100000.0
1385.771,27342200000.0
1387.314,27827600000.0
1390.0,28689700000.0
1395.0,30355900000.0
1400.0,32104200000.0
1405.0,33939400000.0
1410.0,35868600000.0
1415.0,37889900000.0
1420.0,40001700000.0
1425.0,42212300000.0
1430.0,44526500000.0
1435.0,46937900000.0
1440.0,49443800000.0
1445.0,52053900000.0
1450.0,54776400000.0
1455.0,57613900000.0
1460.0,60574800000.0
1465.0,63662200000.0
1470.0,66902900000.0
1473.462,69238700000.0
1476.923,71650900000.0
1478.462,72749300000.0
1480.0,73863900000.0
1483.076,76144000000.0
1485.0,77605300000.0
1488.848,80605400000.0
1490.0,81521900000.0
1492.304,83378000000.0
1495.0,85584300000.0
1500.0,89765400000.0
1505.0,94082900000.0
1510.0,98594400000.0
1515.0,103345000000.0
1520.0,108311000000.0
1525.0,113391000000.0
1530.0,118470000000.0
1535.0,123549000000.0
1540.0,128739000000.0
1545.0,134178000000.0
1550.0,139946000000.0
1555.0,146046000000.0
1560.0,152409000000.0
1565.0,158933000000.0
1570.0,165537000000.0
1572.692,169125000000.0
1575.385,172749000000.0
1577.692,175894000000.0
1580.0,179089000000.0
1584.616,185666000000.0
1585.0,186228000000.0
1585.768,187356000000.0
1587.304,189641000000.0
1590.0,193744000000.0
1595.0,201709000000.0
1600.0,210172000000.0
1605.0,219179000000.0
1610.0,228764000000.0
1615.0,238968000000.0
1620.0,249810000000.0
1625.0,261337000000.0
1630.0,273579000000.0
1635.0,286517000000.0
1640.0,300187000000.0
1645.0,314588000000.0
1650.0,329763000000.0
1655.0,345660000000.0
1660.0,362389000000.0
1665.0,380001000000.0
1670.0,398660000000.0
1671.923,406157000000.0
1673.846,413900000000.0
1676.923,426807000000.0
1680.0,440614000000.0
1685.0,465414000000.0
1690.0,494297000000.0
1692.5,511102000000.0
1695.0,530881000000.0
1697.5,552787000000.0
1700.0,577999000000.0
1702.5,607631000000.0
1705.0,643043000000.0
1707.5,685172000000.0
1710.0,735114000000.0
1712.5,791463000000.0
1715.0,863107000000.0
1716.25,901772000000.0
1717.5,943238000000.0
1718.75,991315000000.0
1720.0,1045590000000.0
1722.5,1156780000000.0
1723.75,1220420000000.0
1725.0,1293460000000.0
1727.5,1449200000000.0
1728.75,1538070000000.0
1730.0,1638670000000.0
1732.5,1849150000000.0
1733.75,1970210000000.0
1735.0,2106670000000.0
1737.5,2383280000000.0
1738.75,2539720000000.0
1740.0,2715460000000.0
1742.5,3076610000000.0
1743.75,3280140000000.0
1745.0,3506730000000.0
1747.5,3960300000000.0
1748.75,4212060000000.0
1750.0,4493300000000.0
1752.5,5054380000000.0
1755.0,5701610000000.0
1757.5,6351240000000.0
1759.327,6870660000000.0
1761.154,7416060000000.0
1764.808,8542540000000.0
1768.462,9718850000000.0
1772.116,10962800000000.0
1772.308,11026700000000.0
1772.808,11195500000000.0
1773.808,11543800000000.0
1775.808,12266700000000.0
1779.808,13654300000000.0
1787.808,16422400000000.0
1795.808,19111700000000.0
1803.808,21584900000000.0
1811.808,23897100000000.0
1819.808,26037200000000.0
1821.539,26476900000000.0
1825.001,27343700000000.0
1831.925,28994700000000.0
1845.772,32092700000000.0
1859.62,34991800000000.0
1870.769,37253000000000.0
1881.918,39470700000000.0
1893.067,41676400000000.0
1904.216,43881900000000.0
1915.365,46098000000000.0
1920.0,47022700000000.0
1929.27,48878400000000.0
1947.809,52635700000000.0
1966.348,56451100000000.0
1969.231,57049700000000.0
1974.998,58248300000000.0
1986.531,60662500000000.0
1998.064,63095300000000.0
2009.597,65533400000000.0
2018.462,67440500000000.0
2036.192,71269300000000.0
2053.921,75178500000000.0
2067.692,78277100000000.0
2081.462,81421900000000.0
2095.233,84608300000000.0
2109.003,87829700000000.0
2116.923,89700000000000.0
2132.762,93421200000000.0
2148.602,97141200000000.0
2164.441,100842000000000.0
2166.154,101235000000000.0
2169.58,102021000000000.0
2176.431,103600000000000.0
2190.135,106711000000000.0
2203.838,109811000000000.0
2215.385,112409000000000.0
2226.932,115015000000000.0
2238.48,117640000000000.0
2250.027,120302000000000.0
2261.574,122991000000000.0
2264.615,123711000000000.0
2270.696,125149000000000.0
2282.858,128052000000000.0
2295.02,131021000000000.0
2307.182,134059000000000.0
2313.846,135754000000000.0
2327.173,139209000000000.0
2340.5,142750000000000.0
2353.827,146419000000000.0
2363.077,148993000000000.0
2381.576,154211000000000.0
2400.075,159450000000000.0
2412.307,162860000000000.0
2424.539,166236000000000.0
2436.771,169548000000000.0
2449.003,172785000000000.0
2461.235,175988000000000.0
2461.538,176065000000000.0
2462.145,176218000000000.0
2463.359,176525000000000.0
2465.787,177139000000000.0
2470.642,178366000000000.0
2480.353,180824000000000.0
2499.775,185600000000000.0
2510.769,188244000000000.0
2521.763,190867000000000.0
2532.757,193448000000000.0
2543.751,196016000000000.0
2554.746,198558000000000.0
2560.0,199771000000000.0
2570.509,202162000000000.0
2581.018,204547000000000.0
2591.526,206912000000000.0
2602.035,209270000000000.0
2612.544,211612000000000.0
2623.053,213946000000000.0
2633.562,216267000000000.0
2644.07,218579000000000.0
2654.579,220879000000000.0
2658.461,221727000000000.0
2666.225,223404000000000.0
2681.752,226745000000000.0
2697.279,230088000000000.0
2712.807,233379000000000.0
2728.334,236662000000000.0
2743.861,239899000000000.0
2756.923,242604000000000.0
2769.985,245273000000000.0
2783.047,247924000000000.0
2796.108,250557000000000.0
2809.17,253170000000000.0
2822.232,255764000000000.0
2835.294,258338000000000.0
2848.355,260893000000000.0
2855.385,262259000000000.0
2869.444,264955000000000.0
2883.503,267626000000000.0
2897.562,270271000000000.0
2911.621,272892000000000.0
2925.68,275486000000000.0
2939.74,278053000000000.0
2945.1,279026000000000.0
2953.846,280603000000000.0
2971.338,283701000000000.0
2988.829,286756000000000.0
3006.321,289767000000000.0
3023.813,292734000000000.0
3041.304,295656000000000.0
3052.308,297471000000000.0
3063.312,299258000000000.0
3074.315,301027000000000.0
3085.319,302777000000000.0
3096.323,304509000000000.0
3107.326,306223000000000.0
3118.33,307919000000000.0
3129.334,309595000000000.0
3140.337,311253000000000.0
3150.769,312808000000000.0
3161.201,314343000000000.0
3171.632,315861000000000.0
3182.064,317363000000000.0
3187.7,318167000000000.0
3198.972,319760000000000.0
3210.244,321335000000000.0
3221.516,322889000000000.0
3232.788,324423000000000.0
3244.06,325937000000000.0
3249.231,326625000000000.0
3259.573,327986000000000.0
3269.916,329331000000000.0
3280.258,330659000000000.0
3290.6,331971000000000.0
3300.942,333265000000000.0
3311.285,334543000000000.0
3321.627,335804000000000.0
3331.969,337049000000000.0
3342.312,338276000000000.0
3347.692,338909000000000.0
3358.453,340158000000000.0
3369.213,341390000000000.0
3379.974,342603000000000.0
3390.735,343799000000000.0
3401.496,344976000000000.0
3412.256,346136000000000.0
3423.017,347277000000000.0
3433.778,348401000000000.0
3444.539,349507000000000.0
3446.154,349671000000000.0
3449.385,349998000000000.0
3455.847,350646000000000.0
3468.771,351922000000000.0
3481.695,353174000000000.0
3494.618,354400000000000.0
3507.542,355600000000000.0
3520.466,356775000000000.0
3533.39,357924000000000.0
3544.615,358902000000000.0
3555.84,359856000000000.0
3567.065,360791000000000.0
3578.29,361708000000000.0
3589.515,362606000000000.0
3595.868,363106000000000.0
3608.573,364085000000000.0
3621.278,365041000000000.0
3633.983,365973000000000.0
3646.5,366869000000000.0
3647.0,366904000000000.0
3647.12,366913000000000.0
3647.22,367054000000000.0
3647.42,367069000000000.0
3647.819,367098000000000.0
3648.0,367112000000000.0
3648.362,367139000000000.0
3649.085,367193000000000.0
3650.533,367302000000000.0
3653.427,367517000000000.0
3659.216,367944000000000.0
3665.005,368366000000000.0
3668.675,368631000000000.0
3676.014,369155000000000.0
3682.807,369634000000000.0
3686.832,369909000000000.0
3690.13,370143000000000.0
3691.554,370229000000000.0
3694.402,370437000000000.0
3696.486,370577000000000.0
3697.152,370603000000000.0
3698.484,370714000000000.0
3701.148,370895000000000.0
3702.843,371008000000000.0
3703.853,371038000000000.0
3705.0,371153000000000.0
3707.294,371307000000000.0
3709.2,371434000000000.0
3711.971,371544000000000.0
3715.556,371853000000000.0
3721.913,372123000000000.0
3721.938,372123000000000.0
3721.988,372133000000000.0
3722.038,372153000000000.0
3722.088,372176000000000.0
3722.138,372200000000000.0
3722.188,372220000000000.0
