Wavelength,Flux
900.0,3062770.0
903.442,3392140.0
904.998,3551440.0
906.554,3717590.0
908.11,3890850.0
909.667,4071600.0
910.703,4196110.0
911.74,4324220.0
911.84,4336760.0
912.0,4356890.0
912.31,4396150.0
912.779,4456160.0
913.717,4578440.0
914.335,4660680.0
915.329,4795800.0
915.824,4864420.0
915.892,4873920.0
916.028,4892990.0
916.3,4931310.0
916.429,4949510.0
916.686,4986170.0
917.181,5057180.0
917.448,5096330.0
917.982,5174530.0
918.129,5195960.0
918.423,5241810.0
919.004,5331420.0
919.351,5380000.0
920.045,5498930.0
920.56,5582940.0
920.963,5631920.0
921.366,5719590.0
921.769,5794330.0
922.117,5857380.0
922.506,5927170.0
922.895,5975560.0
922.992,5971800.0
923.089,5980690.0
923.114,5984910.0
923.138,5988950.0
923.144,5989970.0
923.15,5990980.0
923.156,5992000.0
923.162,5993010.0
923.187,5997240.0
923.211,6001290.0
923.261,6009840.0
923.308,6025590.0
923.402,6064920.0
923.405,6066120.0
923.455,6084470.0
923.555,6114760.0
923.755,6162590.0
923.794,6171190.0
923.872,6187990.0
924.028,6220910.0
924.183,6253200.0
924.436,6305160.0
924.688,6356880.0
924.939,6408480.0
925.189,6459660.0
925.579,6533480.0
925.774,6556670.0
925.97,6540170.0
926.067,6513990.0
926.165,6520400.0
926.189,6524790.0
926.214,6529350.0
926.22,6530430.0
926.226,6531540.0
926.232,6532640.0
926.238,6533720.0
926.263,6538300.0
926.287,6542690.0
926.337,6551910.0
926.385,6572480.0
926.481,6637730.0
926.532,6671070.0
926.632,6725210.0
926.832,6799740.0
926.873,6812260.0
926.955,6835660.0
927.119,6878840.0
927.263,6914820.0
927.551,6983970.0
927.875,7061640.0
928.487,7207820.0
929.097,7353730.0
929.706,7494290.0
930.098,7557380.0
930.295,7546520.0
930.491,7447030.0
930.589,7389880.0
930.687,7395070.0
930.711,7399990.0
930.736,7405110.0
930.742,7406340.0
930.748,7407570.0
930.754,7408800.0
930.76,7410030.0
930.785,7415160.0
930.809,7420090.0
930.859,7430420.0
930.907,7455330.0
931.003,7554090.0
931.005,7556770.0
931.055,7616990.0
931.155,7720430.0
931.355,7856670.0
931.398,7878150.0
931.484,7915870.0
931.656,7979060.0
931.79,8023140.0
932.058,8103990.0
932.593,8254740.0
933.033,8377270.0
933.914,8622470.0
934.276,8723510.0
935.001,8926840.0
935.514,9071830.0
936.54,9348560.0
936.753,9392420.0
937.148,9409580.0
937.346,9311060.0
937.543,9068610.0
937.594,9006810.0
937.642,8971090.0
937.738,8974970.0
937.741,8975680.0
937.766,8981780.0
937.791,8987900.0
937.797,8989360.0
937.803,8990830.0
937.809,8992300.0
937.815,8993780.0
937.84,8999910.0
937.865,9006020.0
937.915,9018320.0
937.964,9050170.0
938.062,9197490.0
938.16,9389120.0
938.356,9684430.0
938.458,9785550.0
938.56,9860860.0
938.764,9980200.0
938.853,10023400.0
939.031,10099900.0
939.388,10236500.0
940.102,10482100.0
940.434,10592600.0
941.097,10813400.0
942.015,11121100.0
942.894,11420000.0
943.773,11723800.0
944.625,12023900.0
945.478,12328800.0
947.079,12901900.0
948.68,13345700.0
948.88,13323800.0
949.08,13210800.0
949.28,12946800.0
949.48,12501700.0
949.58,12361300.0
949.63,12352400.0
949.68,12368700.0
949.705,12376900.0
949.73,12385100.0
949.737,12387400.0
949.743,12389400.0
949.749,12391400.0
949.755,12393300.0
949.781,12401900.0
949.806,12410100.0
949.856,12426600.0
949.906,12468600.0
950.006,12676700.0
950.056,12825700.0
950.156,13129900.0
950.356,13603500.0
950.406,13692200.0
950.506,13841700.0
950.706,14068000.0
950.806,14151700.0
951.005,14287900.0
951.404,14526700.0
952.202,14904100.0
952.407,14994600.0
952.816,15173600.0
953.635,15528200.0
954.008,15688400.0
954.753,16012400.0
955.609,16390900.0
957.211,17122800.0
958.812,17883400.0
960.413,18667700.0
960.776,18849900.0
961.14,19034300.0
961.376,19154900.0
961.611,19275800.0
962.081,19520200.0
963.021,20018300.0
963.251,20141800.0
963.71,20391100.0
964.629,20900400.0
964.89,21046100.0
965.412,21340400.0
966.456,21939300.0
966.53,21982500.0
966.678,22069100.0
966.975,22243300.0
967.567,22596700.0
968.169,22961800.0
969.372,23707900.0
969.809,23984900.0
970.683,24550200.0
971.448,25053500.0
971.858,25318300.0
972.268,25579600.0
972.37,25644200.0
972.473,25709400.0
972.499,25725900.0
972.524,25741700.0
972.531,25746200.0
972.537,25750000.0
972.543,25753800.0
972.55,25758200.0
972.575,25774100.0
972.601,25790600.0
972.653,25823700.0
972.703,25856500.0
972.803,25922700.0
972.806,25924700.0
972.856,25957900.0
972.956,26024300.0
973.156,26157500.0
973.216,26197500.0
973.336,26278400.0
973.576,26448600.0
973.626,26484200.0
973.726,26555600.0
973.926,26699200.0
974.326,26992300.0
975.126,27591000.0
975.265,27696500.0
975.544,27907300.0
976.101,28331600.0
976.905,28950700.0
978.512,30228800.0
978.544,30254600.0
978.608,30306300.0
978.735,30409900.0
978.989,30618200.0
979.498,31038000.0
980.184,31609600.0
981.556,32781900.0
981.823,33014800.0
982.357,33487000.0
983.424,34452000.0
983.463,34487400.0
983.54,34558200.0
983.694,34700400.0
984.003,34986800.0
984.62,35566000.0
985.102,36024700.0
986.065,36963200.0
986.742,37638100.0
988.095,39026800.0
988.381,39327500.0
988.953,39920100.0
990.021,41050600.0
991.66,42849800.0
993.3,44734300.0
996.58,48775300.0
996.65,48865900.0
996.79,49047700.0
997.07,49413800.0
997.63,50154700.0
998.75,51667600.0
1000.0,53374100.0
1001.912,56086300.0
1003.824,58914300.0
1005.553,61587400.0
1007.282,64362800.0
1009.011,67243100.0
1010.74,70253400.0
1012.469,73340800.0
1014.199,76562100.0
1015.928,79859600.0
1017.657,83138300.0
1019.386,86265000.0
1021.115,89067900.0
1021.979,89840900.0
1022.844,89760200.0
1023.708,88333300.0
1024.573,85879700.0
1024.624,85743300.0
1024.674,85617300.0
1024.724,85489700.0
1024.774,85349600.0
1024.824,85201700.0
1024.874,85044000.0
1024.924,84861300.0
1024.974,84648900.0
1025.006,84502600.0
1025.069,84215800.0
1025.196,83393600.0
1025.317,82146700.0
1025.438,80391900.0
1025.546,78927700.0
1025.6,78591100.0
1025.654,78571300.0
1025.681,78617400.0
1025.708,78664800.0
1025.715,78677000.0
1025.72,78685900.0
1025.722,78689400.0
1025.729,78701700.0
1025.736,78713900.0
1025.763,78761400.0
1025.79,78809200.0
1025.844,78959400.0
1025.898,79383300.0
1025.952,80146500.0
1026.005,81135900.0
1026.056,82110800.0
1026.106,83037300.0
1026.156,83893200.0
1026.206,84655800.0
1026.256,85317300.0
1026.306,85890700.0
1026.356,86425700.0
1026.406,86890400.0
1026.438,87161700.0
1026.501,87691200.0
1026.628,88653200.0
1026.87,90268500.0
1027.355,93565900.0
1028.324,100303000.0
1028.6,102006000.0
1029.152,104970000.0
1030.257,109885000.0
1030.329,110169000.0
1030.474,110734000.0
1030.763,111864000.0
1031.341,114024000.0
1032.058,116509000.0
1033.493,121183000.0
1033.787,122130000.0
1034.376,123982000.0
1035.516,127526000.0
1037.246,133359000.0
1038.975,139067000.0
1040.704,144807000.0
1042.433,150699000.0
1044.162,156803000.0
1045.892,163170000.0
1047.621,169658000.0
1048.81,174262000.0
1050.0,178990000.0
1052.38,188822000.0
1055.0,200074000.0
1057.62,211975000.0
1060.0,223289000.0
1064.76,247638000.0
1065.0,248938000.0
1065.48,251539000.0
1066.441,256749000.0
1068.363,267500000.0
1070.0,276996000.0
1073.273,296939000.0
1075.0,307868000.0
1078.453,331010000.0
1080.0,341953000.0
1081.538,353046000.0
1083.077,364446000.0
1086.155,388387000.0
1086.538,391467000.0
1087.304,397707000.0
1088.835,410480000.0
1090.0,420282000.0
1092.33,440622000.0
1095.0,465198000.0
1097.67,491114000.0
1100.0,514385000.0
1104.661,564359000.0
1105.0,568185000.0
1105.679,575925000.0
1107.036,591784000.0
1109.751,622981000.0
1110.0,625919000.0
1110.498,631846000.0
1111.494,643824000.0
1113.486,668372000.0
1115.0,687643000.0
1118.027,727058000.0
1120.0,752590000.0
1123.945,804235000.0
1125.0,818085000.0
1127.109,845108000.0
1130.0,880510000.0
1131.154,894596000.0
1132.308,908123000.0
1134.616,935155000.0
1136.154,952728000.0
1139.23,987814000.0
1140.0,996216000.0
1141.539,1013880000.0
1144.617,1051050000.0
1145.0,1055970000.0
1145.766,1065180000.0
1147.297,1084730000.0
1150.0,1119880000.0
1152.703,1156090000.0
1155.406,1192860000.0
1158.109,1230150000.0
1160.812,1269180000.0
1163.516,1309920000.0
1165.769,1346500000.0
1170.276,1428380000.0
1174.783,1522030000.0
1179.29,1626660000.0
1181.538,1682910000.0
1185.628,1791570000.0
1189.718,1907590000.0
1191.767,1967310000.0
1193.816,2027390000.0
1195.866,2087210000.0
1197.915,2147260000.0
1199.964,2208170000.0
1202.014,2269550000.0
1204.063,2330230000.0
1206.113,2386280000.0
1208.162,2434320000.0
1210.211,2476340000.0
1212.261,2523240000.0
1214.31,2590170000.0
1214.822,2609570000.0
1215.335,2629140000.0
1215.463,2632870000.0
1215.591,2636150000.0
1215.623,2637430000.0
1215.655,2638720000.0
1215.663,2639040000.0
1215.67,2639330000.0
1215.679,2639690000.0
1215.687,2640010000.0
1215.719,2641300000.0
1215.751,2642600000.0
1215.815,2645940000.0
1215.879,2650250000.0
1216.007,2657950000.0
1216.263,2672080000.0
1216.52,2687340000.0
1217.032,2720630000.0
1218.056,2804570000.0
1219.08,2897070000.0
1219.081,2897180000.0
1219.131,2901580000.0
1219.181,2906030000.0
1219.231,2910550000.0
1219.281,2915130000.0
1219.331,2919810000.0
1219.381,2924770000.0
1219.431,2929820000.0
1219.481,2934930000.0
1219.531,2939420000.0
1219.582,2943540000.0
1219.632,2947710000.0
1219.682,2951910000.0
1219.732,2956160000.0
1219.782,2960430000.0
1219.832,2964750000.0
1219.882,2969110000.0
1219.932,2973560000.0
1219.982,2978100000.0
1220.032,2981930000.0
1220.082,2985350000.0
1220.132,2988800000.0
1220.182,2992260000.0
1220.232,2995800000.0
1220.282,2999410000.0
1220.332,3003030000.0
1220.382,3006670000.0
1220.432,3010330000.0
1220.482,3014020000.0
1220.532,3017670000.0
1220.583,3021300000.0
1220.633,3024930000.0
1220.683,3028600000.0
1220.733,3032320000.0
1220.783,3036080000.0
1220.833,3039880000.0
1220.883,3043710000.0
1220.933,3047570000.0
1220.983,3051170000.0
1221.033,3054970000.0
1221.083,3058740000.0
1221.131,3062370000.0
1221.227,3069720000.0
1221.419,3084940000.0
1221.803,3108110000.0
1222.57,3152100000.0
1223.18,3193970000.0
1224.4,3271130000.0
1225.229,3318770000.0
1226.887,3407300000.0
1227.279,3427740000.0
1228.062,3469190000.0
1229.328,3538100000.0
1231.378,3653190000.0
1233.427,3771130000.0
1235.476,3891270000.0
1237.526,4013550000.0
1239.575,4137500000.0
1241.625,4264440000.0
1245.725,4529560000.0
1249.825,4809860000.0
1250.812,4878600000.0
1252.786,5021140000.0
1256.733,5315970000.0
1260.0,5575120000.0
1263.267,5850480000.0
1265.0,6000400000.0
1268.466,6304380000.0
1270.0,6445470000.0
1273.068,6735370000.0
1275.0,6921230000.0
1278.863,7318010000.0
1280.0,7437050000.0
1282.273,7677600000.0
1285.0,7966560000.0
1287.727,8267690000.0
1290.0,8527190000.0
1294.547,9075500000.0
1295.0,9132470000.0
1295.906,9247450000.0
1297.719,9480050000.0
1300.0,9776880000.0
1305.0,10441100000.0
1310.0,11143800000.0
1315.0,11888900000.0
1320.0,12677500000.0
1325.0,13512800000.0
1330.0,14399000000.0
1335.0,15335300000.0
1340.0,16319100000.0
1345.0,17351900000.0
1350.0,18441600000.0
1355.0,19595200000.0
1360.0,20803900000.0
1365.0,22077000000.0
1370.0,23420300000.0
1374.231,24605600000.0
1378.462,25839700000.0
1379.231,26070000000.0
1380.0,26302100000.0
1381.538,26771800000.0
1384.614,27732900000.0
1385.0,27855500000.0
1385.771,28101900000.0
1387.314,28600300000.0
1390.0,29485200000.0
1395.0,31195600000.0
1400.0,32989800000.0
1405.0,34873200000.0
1410.0,36852500000.0
1415.0,38926000000.0
1420.0,41091800000.0
1425.0,43359000000.0
1430.0,45732300000.0
1435.0,48204700000.0
1440.0,50773500000.0
1445.0,53448800000.0
1450.0,56239000000.0
1455.0,59146700000.0
1460.0,62180700000.0
1465.0,65344100000.0
1470.0,68664700000.0
1473.462,71057600000.0
1476.923,73528600000.0
1478.462,74653900000.0
1480.0,75795900000.0
1483.076,78133900000.0
1485.0,79633300000.0
1488.848,82712100000.0
1490.0,83652700000.0
1492.304,85557500000.0
1495.0,87820400000.0
1500.0,92106300000.0
1505.0,96530500000.0
1510.0,101156000000.0
1515.0,106029000000.0
1520.0,111126000000.0
1525.0,116333000000.0
1530.0,121528000000.0
1535.0,126708000000.0
1540.0,131998000000.0
1545.0,137546000000.0
1550.0,143437000000.0
1555.0,149674000000.0
1560.0,156183000000.0
1565.0,162851000000.0
1570.0,169602000000.0
1572.692,173270000000.0
1575.385,176972000000.0
1577.692,180185000000.0
1580.0,183449000000.0
1584.616,190168000000.0
1585.0,190742000000.0
1585.768,191895000000.0
1587.304,194229000000.0
1590.0,198422000000.0
1595.0,206562000000.0
1600.0,215216000000.0
1605.0,224427000000.0
1610.0,234233000000.0
1615.0,244691000000.0
1620.0,255853000000.0
1625.0,267718000000.0
1630.0,280345000000.0
1635.0,293687000000.0
1640.0,307713000000.0
1645.0,322408000000.0
1650.0,337818000000.0
1655.0,354006000000.0
1660.0,370966000000.0
1665.0,388705000000.0
1670.0,407299000000.0
1671.923,414681000000.0
1673.846,422276000000.0
1676.923,434863000000.0
1680.0,447925000000.0
1685.0,470918000000.0
1690.0,497049000000.0
1695.0,527882000000.0
1697.5,546346000000.0
1700.0,567087000000.0
1702.5,589444000000.0
1705.0,617535000000.0
1707.5,648275000000.0
1710.0,686725000000.0
1712.5,727323000000.0
1715.0,777866000000.0
1717.5,834422000000.0
1720.0,903821000000.0
1722.5,980283000000.0
1725.0,1070650000000.0
1727.5,1168270000000.0
1730.0,1287710000000.0
1732.5,1414520000000.0
1735.0,1568090000000.0
1737.5,1729890000000.0
1740.0,1917910000000.0
1742.5,2113260000000.0
1745.0,2343760000000.0
1747.5,2582250000000.0
1750.0,2854050000000.0
1752.5,3136070000000.0
1755.0,3458350000000.0
1760.0,4128830000000.0
1761.154,4291150000000.0
1763.462,4617020000000.0
1765.77,4975610000000.0
1768.078,5322050000000.0
1772.308,6005610000000.0
1776.538,6711670000000.0
1784.997,8146750000000.0
1801.915,10995600000000.0
1810.375,12373800000000.0
1818.834,13696300000000.0
1821.539,14116100000000.0
1826.949,14939800000000.0
1837.77,16560300000000.0
1848.591,18163000000000.0
1859.412,19767700000000.0
1870.233,21389700000000.0
1870.769,21470800000000.0
1871.842,21631400000000.0
1873.988,21956400000000.0
1878.28,22610600000000.0
1886.864,23936600000000.0
1904.032,26660000000000.0
1920.0,29292100000000.0
1935.968,32026700000000.0
1951.936,34863800000000.0
1967.904,37796400000000.0
1969.231,38044800000000.0
1971.885,38542200000000.0
1977.192,39545000000000.0
1987.808,41581100000000.0
1998.423,43653300000000.0
2009.038,45736100000000.0
2018.462,47641500000000.0
2037.31,51515100000000.0
2056.158,55547300000000.0
2067.692,58103600000000.0
2079.226,60731900000000.0
2090.76,63411800000000.0
2102.294,66163700000000.0
2113.829,68936400000000.0
2116.923,69694700000000.0
2123.112,71200500000000.0
2135.49,74205900000000.0
2147.868,77198900000000.0
2160.246,80201100000000.0
2166.154,81566100000000.0
2177.97,84322800000000.0
2189.787,86983400000000.0
2201.603,89636600000000.0
2213.42,92230800000000.0
2215.385,92665700000000.0
2219.316,93536400000000.0
2227.177,95283500000000.0
2242.9,98830400000000.0
2258.622,102492000000000.0
2264.615,103931000000000.0
2276.6,106855000000000.0
2288.586,109898000000000.0
2300.571,113027000000000.0
2312.556,116387000000000.0
2313.846,116752000000000.0
2316.425,117482000000000.0
2321.583,118970000000000.0
2331.9,122137000000000.0
2342.216,125384000000000.0
2352.532,128831000000000.0
2362.849,132357000000000.0
2363.077,132438000000000.0
2363.577,132613000000000.0
2364.577,132964000000000.0
2366.577,133667000000000.0
2370.577,135082000000000.0
2378.577,137941000000000.0
2394.577,143702000000000.0
2410.577,149430000000000.0
2412.307,150047000000000.0
2415.767,151281000000000.0
2422.687,153714000000000.0
2436.527,158400000000000.0
2450.366,162886000000000.0
2461.538,166433000000000.0
2472.71,169744000000000.0
2483.881,173006000000000.0
2495.053,176121000000000.0
2506.225,179156000000000.0
2510.769,180358000000000.0
2519.858,182758000000000.0
2538.036,187362000000000.0
2556.213,191834000000000.0
2560.0,192762000000000.0
2567.573,194568000000000.0
2582.72,198163000000000.0
2597.866,201699000000000.0
2613.013,205191000000000.0
2628.159,208649000000000.0
2643.306,212075000000000.0
2658.452,215470000000000.0
2658.461,215472000000000.0
2658.961,215584000000000.0
2659.961,215806000000000.0
2661.961,216249000000000.0
2665.961,217133000000000.0
2673.961,218898000000000.0
2689.961,222453000000000.0
2705.961,225980000000000.0
2721.961,229434000000000.0
2737.961,232844000000000.0
2753.961,236232000000000.0
2756.923,236856000000000.0
2762.847,238096000000000.0
2774.696,240565000000000.0
2786.545,243021000000000.0
2798.393,245462000000000.0
2810.242,247888000000000.0
2822.091,250299000000000.0
2833.939,252695000000000.0
2845.788,255075000000000.0
2855.385,256991000000000.0
2874.579,260772000000000.0
2893.774,264507000000000.0
2912.968,268198000000000.0
2932.162,271841000000000.0
2945.1,274270000000000.0
2953.846,275899000000000.0
2971.338,279106000000000.0
2988.829,282271000000000.0
3006.321,285394000000000.0
3023.813,288473000000000.0
3041.304,291509000000000.0
3052.308,293396000000000.0
3063.312,295257000000000.0
3074.315,297101000000000.0
3085.319,298927000000000.0
3096.323,300734000000000.0
3107.326,302523000000000.0
3118.33,304294000000000.0
3129.334,306046000000000.0
3140.337,307780000000000.0
3150.769,309407000000000.0
3161.201,311016000000000.0
3171.632,312608000000000.0
3182.064,314183000000000.0
3187.7,315027000000000.0
3198.972,316700000000000.0
3210.244,318353000000000.0
3221.516,319987000000000.0
3232.788,321601000000000.0
3244.06,323194000000000.0
3249.231,323919000000000.0
3259.573,325354000000000.0
3269.916,326773000000000.0
3280.258,328176000000000.0
3290.6,329561000000000.0
3300.942,330930000000000.0
3311.285,332281000000000.0
3321.627,333616000000000.0
3331.969,334934000000000.0
3342.312,336235000000000.0
3347.692,336905000000000.0
3358.453,338232000000000.0
3369.213,339541000000000.0
3379.974,340832000000000.0
3390.735,342103000000000.0
3401.496,343358000000000.0
3412.256,344594000000000.0
3423.017,345812000000000.0
3433.778,347011000000000.0
3444.539,348193000000000.0
3446.154,348369000000000.0
3449.385,348718000000000.0
3455.847,349412000000000.0
3468.771,350780000000000.0
3481.695,352123000000000.0
3494.618,353439000000000.0
3507.542,354730000000000.0
3520.466,355995000000000.0
3533.39,357234000000000.0
3544.615,358290000000000.0
3555.84,359323000000000.0
3567.065,360336000000000.0
3578.29,361330000000000.0
3589.515,362305000000000.0
3595.868,362848000000000.0
3608.573,363915000000000.0
3621.278,364957000000000.0
3633.983,365976000000000.0
3646.5,366957000000000.0
3647.0,366996000000000.0
3647.12,367005000000000.0
3647.22,366831000000000.0
3647.42,366847000000000.0
3647.819,366879000000000.0
3648.0,366893000000000.0
3648.362,366923000000000.0
3649.085,366981000000000.0
3650.533,367097000000000.0
3653.427,367327000000000.0
3659.216,367785000000000.0
3665.005,368238000000000.0
3668.675,368522000000000.0
3676.014,369086000000000.0
3682.807,369600000000000.0
3686.832,369900000000000.0
3690.13,370147000000000.0
3691.554,370249000000000.0
3694.402,370462000000000.0
3696.486,370615000000000.0
3697.152,370658000000000.0
3698.484,370761000000000.0
3701.148,370955000000000.0
3702.843,371078000000000.0
3703.853,371141000000000.0
3705.0,371234000000000.0
3707.294,371399000000000.0
3709.2,371536000000000.0
3711.971,371713000000000.0
3715.556,371987000000000.0
3721.913,372392000000000.0
3721.938,372393000000000.0
3721.988,372398000000000.0
3722.038,372407000000000.0
3722.088,372416000000000.0
3722.138,372425000000000.0
3722.188,372433000000000.0
3722.238,372441000000000.0
3722.288,372447000000000.0
3722.338,372453000000000.0
3722.388,372458000000000.0
3722.438,372463000000000.0
3722.489,372468000000000.0
3722.539,372473000000000.0
3722.589,372477000000000.0
3722.639,372481000000000.0
3722.689,372485000000000.0
3722.739,372488000000000.0
3722.789,372492000000000.0
3722.839,372496000000000.0
3722.889,372499000000000.0
3722.939,372503000000000.0
3722.989,372507000000000.0
3723.039,372510000000000.0
3723.089,372514000000000.0
3723.139,372518000000000.0
3723.189,372521000000000.0
3723.239,372524000000000.0
3723.289,372528000000000.0
3723.339,372532000000000.0
3723.389,372535000000000.0
3723.439,372539000000000.0
3723.49,372542000000000.0
3723.54,372546000000000.0
3723.59,372549000000000.0
3723.64,372553000000000.0
3723.69,372556000000000.0
