Wavelength,Flux
900.0,6894730.0
903.442,7612610.0
904.998,7959050.0
906.554,8319880.0
908.11,8695600.0
909.667,9087050.0
910.703,9356380.0
911.74,9633230.0
911.84,9660340.0
912.0,9703820.0
912.31,9788600.0
912.779,9918140.0
913.717,10181900.0
914.335,10361800.0
915.329,10650300.0
915.824,10798000.0
915.892,10818500.0
916.028,10949200.0
916.164,11046000.0
916.297,10956200.0
916.429,10981100.0
916.495,11001400.0
916.561,11039800.0
916.628,11197100.0
916.694,11330700.0
916.76,11420600.0
916.826,11466700.0
916.892,11465300.0
916.958,11391900.0
917.025,11248500.0
917.091,11184600.0
917.157,11205200.0
917.181,11212700.0
917.231,11228200.0
917.331,11337500.0
917.381,11525600.0
917.431,11712700.0
917.448,11769000.0
917.498,11905900.0
917.598,12091500.0
917.698,12173700.0
917.748,12173400.0
917.798,12134400.0
917.848,12041600.0
917.898,11888800.0
917.998,11491100.0
918.048,11485100.0
918.098,11501000.0
918.129,11510900.0
918.191,11530800.0
918.223,11540700.0
918.254,11561400.0
918.285,11688500.0
918.316,11858700.0
918.379,12234400.0
918.441,12558600.0
918.503,12821900.0
918.566,13022000.0
918.628,13174300.0
918.753,13374200.0
918.815,13413100.0
918.878,13397500.0
918.94,13311500.0
919.002,13139100.0
919.004,13132900.0
919.054,12903600.0
919.104,12602100.0
919.154,12253300.0
919.204,11958800.0
919.254,11874200.0
919.302,11890100.0
919.351,11906000.0
919.448,11938000.0
919.497,12049500.0
919.545,12391100.0
919.594,12825500.0
919.642,13268100.0
919.739,14051700.0
919.788,14381400.0
919.836,14665900.0
919.933,15137500.0
920.03,15489500.0
920.127,15745100.0
920.224,15897900.0
920.321,15927100.0
920.37,15879000.0
920.419,15764700.0
920.467,15579500.0
920.516,15314700.0
920.56,14992000.0
920.61,14547600.0
920.66,14021000.0
920.71,13474200.0
920.76,12946000.0
920.81,12541000.0
920.86,12411000.0
920.91,12428100.0
920.963,12446200.0
921.069,12482700.0
921.096,12519500.0
921.122,12695500.0
921.149,12923800.0
921.175,13205200.0
921.202,13523800.0
921.229,13871400.0
921.255,14229700.0
921.282,14606100.0
921.335,15358600.0
921.441,16751400.0
921.494,17338500.0
921.547,17871400.0
921.6,18322800.0
921.653,18723100.0
921.76,19404900.0
921.866,19939400.0
921.972,20356700.0
922.078,20653000.0
922.117,20718200.0
922.195,20792100.0
922.273,20777900.0
922.35,20650700.0
922.428,20378000.0
922.506,19910500.0
922.556,19496700.0
922.606,18959700.0
922.656,18324000.0
922.706,17566400.0
922.756,16727500.0
922.856,14995100.0
922.895,14404400.0
922.945,13769900.0
922.992,13343000.0
923.042,13176000.0
923.089,13192900.0
923.114,13201900.0
923.138,13210600.0
923.144,13212700.0
923.15,13214900.0
923.156,13217100.0
923.162,13219200.0
923.187,13228200.0
923.211,13236900.0
923.261,13255200.0
923.308,13458400.0
923.358,13960900.0
923.405,14613500.0
923.455,15459400.0
923.505,16438500.0
923.555,17495300.0
923.655,19572300.0
923.724,20895900.0
923.794,22044300.0
923.864,23055900.0
923.933,23934100.0
924.003,24696700.0
924.072,25369800.0
924.183,26294300.0
924.294,27078200.0
924.405,27657700.0
924.436,27792300.0
924.498,28038100.0
924.623,28444000.0
924.688,28607100.0
924.818,28817600.0
924.939,28860100.0
925.06,28725100.0
925.182,28334000.0
925.189,28299600.0
925.239,28028300.0
925.339,27318700.0
925.389,26850900.0
925.439,26274800.0
925.489,25604200.0
925.539,24841000.0
925.579,24134400.0
925.659,22553500.0
925.699,21648800.0
925.739,20704000.0
925.819,18772700.0
925.895,17053300.0
925.97,15663000.0
926.018,14985000.0
926.067,14505600.0
926.116,14326500.0
926.164,14345300.0
926.189,14355000.0
926.214,14364800.0
926.22,14367100.0
926.226,14369400.0
926.232,14371800.0
926.238,14374100.0
926.263,14383900.0
926.287,14393200.0
926.337,14412800.0
926.385,14631200.0
926.435,15173500.0
926.482,15881400.0
926.532,16816200.0
926.582,17933900.0
926.632,19186400.0
926.682,20511600.0
926.782,23133200.0
926.873,25341400.0
926.964,27342100.0
927.055,29118700.0
927.146,30614700.0
927.237,31965800.0
927.263,32314900.0
927.315,32942000.0
927.418,34084100.0
927.521,35060100.0
927.624,35903200.0
927.83,37284100.0
927.875,37540300.0
927.966,38024200.0
928.147,38866000.0
928.487,40063300.0
928.657,40462900.0
928.827,40583500.0
928.962,40507400.0
929.097,40275600.0
929.147,40141400.0
929.247,39767800.0
929.347,39240600.0
929.447,38531100.0
929.547,37598200.0
929.647,36422600.0
929.706,35612800.0
929.765,34690600.0
929.824,33650800.0
929.943,31364100.0
930.002,30035500.0
930.061,28646600.0
930.098,27698700.0
930.172,25769000.0
930.247,23695700.0
930.321,21624600.0
930.395,19663700.0
930.47,18034000.0
930.491,17646900.0
930.541,16881100.0
930.589,16367900.0
930.639,16187000.0
930.687,16207800.0
930.711,16218300.0
930.736,16229200.0
930.742,16231800.0
930.748,16234400.0
930.754,16237000.0
930.76,16239600.0
930.785,16250500.0
930.809,16261000.0
930.859,16282900.0
930.907,16508100.0
930.957,17098900.0
931.005,17892600.0
931.055,18919900.0
931.105,20152500.0
931.155,21546100.0
931.205,23032200.0
931.305,26029400.0
931.398,28710800.0
931.491,31254400.0
931.584,33630900.0
931.677,35803200.0
931.77,37854900.0
931.79,38255800.0
931.84,39243100.0
931.94,41101100.0
932.04,42758200.0
932.14,44247100.0
932.24,45571600.0
932.44,47862700.0
932.64,49776300.0
932.84,51309700.0
933.033,52646900.0
933.226,53779400.0
933.419,54759200.0
933.805,56284000.0
934.192,57396200.0
934.276,57574000.0
934.445,57876700.0
934.782,58240200.0
935.119,58130200.0
935.456,57434000.0
935.514,57231900.0
935.63,56744200.0
935.862,55431100.0
936.093,53583000.0
936.209,52394500.0
936.325,51011100.0
936.441,49398100.0
936.557,47498800.0
936.655,45658900.0
936.753,43624700.0
936.851,41353000.0
936.949,38908200.0
937.048,36224900.0
937.146,33314100.0
937.148,33248100.0
937.198,31711100.0
937.298,28415000.0
937.398,25131200.0
937.471,22967000.0
937.544,21240900.0
937.594,20343300.0
937.642,19743400.0
937.692,19531000.0
937.741,19556300.0
937.766,19569200.0
937.791,19582100.0
937.797,19585200.0
937.803,19588300.0
937.809,19591400.0
937.815,19594500.0
937.84,19607500.0
937.865,19620400.0
937.915,19646300.0
937.964,19912600.0
938.014,20603500.0
938.062,21533700.0
938.112,22734000.0
938.162,24176800.0
938.212,25807800.0
938.262,27558100.0
938.362,31108700.0
938.458,34405600.0
938.554,37544800.0
938.65,40497800.0
938.746,43233100.0
938.842,45836100.0
938.853,46110000.0
938.903,47360000.0
939.003,49734600.0
939.103,51905400.0
939.203,53887900.0
939.303,55668400.0
939.503,58876500.0
939.703,61587300.0
939.903,64001900.0
940.103,66104100.0
940.303,67936000.0
940.434,68989100.0
940.696,70842300.0
941.22,73901900.0
941.744,76244900.0
942.015,77262500.0
942.556,79062500.0
942.894,80044200.0
943.57,81852100.0
943.773,82308100.0
944.18,83126100.0
944.625,83879000.0
945.478,84719700.0
945.905,84709800.0
946.331,84192300.0
946.705,83231900.0
947.079,81580500.0
947.453,78974400.0
947.827,75078300.0
948.014,72602000.0
948.201,69582600.0
948.388,65923100.0
948.575,61385500.0
948.68,58458000.0
948.785,55176900.0
948.89,51696300.0
948.985,48223600.0
949.08,44526700.0
949.175,40581000.0
949.27,36492200.0
949.317,34466200.0
949.365,32557900.0
949.412,30843200.0
949.46,29376300.0
949.48,28835500.0
949.53,27693900.0
949.58,26911500.0
949.63,26652300.0
949.68,26686500.0
949.705,26703700.0
949.73,26720800.0
949.737,26725600.0
949.743,26729800.0
949.749,26733900.0
949.755,26738000.0
949.781,26755900.0
949.806,26773100.0
949.856,26807400.0
949.906,27137600.0
949.956,27997900.0
950.006,29226100.0
950.056,30750300.0
950.106,32590300.0
950.156,34664200.0
950.206,36901500.0
950.306,41525600.0
950.406,46037000.0
950.506,50302600.0
950.606,54346100.0
950.706,58071900.0
950.806,61638600.0
950.906,64893800.0
951.006,67940600.0
951.106,70723200.0
951.206,73283000.0
951.406,77767700.0
951.605,81651300.0
951.805,85068800.0
952.005,88152100.0
952.205,90858600.0
952.405,93256300.0
952.407,93282400.0
952.457,93831600.0
952.557,94892200.0
952.757,96919900.0
952.957,98737900.0
953.157,100430000.0
953.357,102026000.0
953.557,103496000.0
953.757,104870000.0
953.957,106197000.0
954.008,106527000.0
954.11,107185000.0
954.314,108455000.0
954.721,110895000.0
955.537,115549000.0
955.609,115944000.0
955.753,116742000.0
956.042,118320000.0
956.618,121561000.0
957.211,124534000.0
958.397,130447000.0
958.812,132420000.0
959.643,136579000.0
960.413,140621000.0
960.776,142621000.0
961.14,144479000.0
961.376,145703000.0
961.611,146963000.0
962.081,149632000.0
963.021,154462000.0
963.251,155686000.0
963.71,158312000.0
964.629,163490000.0
964.89,164875000.0
965.412,167783000.0
966.456,174013000.0
966.53,174390000.0
966.678,175151000.0
966.975,176637000.0
967.567,179658000.0
968.169,182777000.0
968.771,184798000.0
969.372,186198000.0
969.809,186901000.0
970.683,187459000.0
970.874,186968000.0
971.065,186500000.0
971.161,186328000.0
971.257,186189000.0
971.352,185448000.0
971.448,181366000.0
971.544,178197000.0
971.639,175700000.0
971.831,172082000.0
971.858,171677000.0
971.913,170927000.0
972.022,169346000.0
972.242,165541000.0
972.268,165198000.0
972.321,164559000.0
972.37,164015000.0
972.469,163071000.0
972.473,163032000.0
972.499,162810000.0
972.524,162601000.0
972.531,162544000.0
972.537,162496000.0
972.543,162447000.0
972.55,162391000.0
972.575,162194000.0
972.601,161994000.0
972.653,161606000.0
972.703,161516000.0
972.803,161432000.0
972.806,161430000.0
972.856,161391000.0
972.956,161316000.0
973.156,161211000.0
973.216,161187000.0
973.336,161265000.0
973.576,162974000.0
973.626,163336000.0
973.726,164067000.0
973.926,165574000.0
974.326,169271000.0
975.126,177653000.0
975.265,179303000.0
975.544,182270000.0
976.101,188658000.0
976.905,197367000.0
977.709,208217000.0
978.512,221303000.0
978.544,221863000.0
978.608,223016000.0
978.735,225137000.0
978.989,229343000.0
979.498,239494000.0
979.752,245857000.0
980.007,253364000.0
980.184,257867000.0
980.539,267969000.0
980.893,276324000.0
981.247,284459000.0
981.535,289831000.0
981.823,294631000.0
982.398,305162000.0
982.931,313613000.0
983.463,321039000.0
984.528,338929000.0
985.102,350801000.0
985.676,360090000.0
986.251,369037000.0
986.742,377611000.0
987.724,396928000.0
988.381,409033000.0
989.694,429616000.0
990.021,435601000.0
990.675,445611000.0
991.167,449237000.0
991.66,454807000.0
991.71,455761000.0
991.81,457714000.0
992.01,461740000.0
992.21,465950000.0
992.41,471586000.0
992.61,477465000.0
992.81,483755000.0
993.01,490965000.0
993.21,498837000.0
993.3,502203000.0
993.48,507852000.0
993.84,520682000.0
994.56,546275000.0
995.279,566746000.0
995.999,587433000.0
996.65,603563000.0
997.301,631568000.0
997.952,670988000.0
999.254,752967000.0
1000.0,807472000.0
1000.373,821309000.0
1000.746,834678000.0
1001.491,860604000.0
1001.702,862041000.0
1001.912,863590000.0
1002.333,867442000.0
1003.174,874958000.0
1003.824,881253000.0
1004.474,878033000.0
1005.125,863525000.0
1005.553,855409000.0
1006.409,837686000.0
1006.846,825137000.0
1007.282,807389000.0
1008.155,771577000.0
1009.011,735946000.0
1010.724,662243000.0
1010.74,661611000.0
1010.79,659678000.0
1010.89,655870000.0
1011.09,648151000.0
1011.29,640407000.0
1011.49,633126000.0
1011.69,625874000.0
1011.89,619017000.0
1012.09,612392000.0
1012.29,605944000.0
1012.469,600505000.0
1012.827,589614000.0
1013.543,570787000.0
1014.199,555345000.0
1014.855,542311000.0
1015.511,531032000.0
1015.928,524743000.0
1016.761,513884000.0
1017.657,504791000.0
1018.553,497256000.0
1019.386,490862000.0
1021.052,479179000.0
1021.115,478617000.0
1021.241,477523000.0
1021.493,475468000.0
1021.997,469609000.0
1022.42,462526000.0
1022.844,452354000.0
1023.268,437654000.0
1023.691,416251000.0
1023.903,403339000.0
1024.115,386168000.0
1024.327,365946000.0
1024.538,342702000.0
1024.574,338045000.0
1024.645,328602000.0
1024.788,308478000.0
1024.897,292313000.0
1025.006,274133000.0
1025.115,254564000.0
1025.224,231579000.0
1025.331,206737000.0
1025.438,183110000.0
1025.492,173518000.0
1025.546,166143000.0
1025.596,161626000.0
1025.646,160160000.0
1025.654,160151000.0
1025.681,160228000.0
1025.708,160322000.0
1025.715,160346000.0
1025.72,160364000.0
1025.722,160371000.0
1025.729,160395000.0
1025.736,160419000.0
1025.763,160513000.0
1025.79,160607000.0
1025.844,161488000.0
1025.871,163104000.0
1025.898,165611000.0
1025.925,168850000.0
1025.952,172666000.0
1026.005,182076000.0
1026.056,192851000.0
1026.106,204702000.0
1026.156,217234000.0
1026.206,229528000.0
1026.256,241703000.0
1026.306,253270000.0
1026.356,264028000.0
1026.406,274294000.0
1026.438,280376000.0
1026.501,291869000.0
1026.628,313881000.0
1026.749,333164000.0
1026.87,351446000.0
1026.92,358710000.0
1026.97,365981000.0
1027.02,372837000.0
1027.07,378942000.0
1027.12,384910000.0
1027.17,390727000.0
1027.22,396455000.0
1027.27,402115000.0
1027.32,407711000.0
1027.37,413149000.0
1027.421,418625000.0
1027.471,424287000.0
1027.521,429350000.0
1027.571,433538000.0
1027.621,437681000.0
1027.671,441828000.0
1027.721,445876000.0
1027.771,449788000.0
1027.821,453673000.0
1027.871,457584000.0
1027.921,461515000.0
1027.971,465624000.0
1028.021,469443000.0
1028.071,472778000.0
1028.121,476060000.0
1028.171,479314000.0
1028.221,482574000.0
1028.271,485767000.0
1028.321,488932000.0
1028.371,492109000.0
1028.422,495268000.0
1028.472,498438000.0
1028.522,501340000.0
1028.572,503867000.0
1028.6,505280000.0
1028.657,508083000.0
1028.77,513573000.0
1028.996,524521000.0
1029.45,542489000.0
1029.903,558666000.0
1030.329,572324000.0
1031.182,600460000.0
1032.058,631499000.0
1033.787,692622000.0
1035.516,749562000.0
1035.948,769462000.0
1036.38,794043000.0
1036.813,825825000.0
1037.245,864792000.0
1037.296,869848000.0
1037.346,874971000.0
1037.396,880268000.0
1037.446,885752000.0
1037.496,891432000.0
1037.546,896051000.0
1037.596,900678000.0
1037.646,905418000.0
1037.696,910277000.0
1037.746,915262000.0
1037.797,920382000.0
1037.847,925638000.0
1037.897,931036000.0
1037.947,936580000.0
1037.997,942279000.0
1038.047,947401000.0
1038.097,952593000.0
1038.147,957903000.0
1038.197,963341000.0
1038.247,968912000.0
1038.297,974622000.0
1038.347,980477000.0
1038.397,986484000.0
1038.447,992648000.0
1038.497,998976000.0
1038.547,1004840000.0
1038.597,1010800000.0
1038.647,1016910000.0
1038.697,1023150000.0
1038.747,1029560000.0
1038.797,1036120000.0
1038.848,1042820000.0
1038.898,1049690000.0
1038.948,1056730000.0
1038.975,1060660000.0
1039.03,1067680000.0
1039.139,1080420000.0
1039.358,1107400000.0
1039.795,1157820000.0
1040.67,1263230000.0
1040.704,1267910000.0
1040.771,1277410000.0
1040.906,1296850000.0
1041.176,1336780000.0
1041.715,1419580000.0
1042.433,1526570000.0
1043.151,1638600000.0
1043.87,1770550000.0
1044.162,1830980000.0
1044.747,1961990000.0
1045.332,2113960000.0
1045.612,2198190000.0
1045.892,2291990000.0
1046.452,2493690000.0
1047.012,2689490000.0
1047.317,2780180000.0
1047.621,2871250000.0
1048.23,3064930000.0
1048.52,3176600000.0
1048.81,3316330000.0
1049.1,3467600000.0
1049.39,3633000000.0
1049.97,3955550000.0
1050.0,3972620000.0
1050.06,3997550000.0
1050.179,4047750000.0
1050.417,4150080000.0
1050.655,4231650000.0
1050.894,4305200000.0
1051.37,4431020000.0
1052.323,4654460000.0
1052.8,4747610000.0
1053.276,4817490000.0
1054.229,4927040000.0
1054.615,4990660000.0
1055.0,5072820000.0
1055.771,5221120000.0
1056.156,5241670000.0
1056.541,5211550000.0
1056.926,5126750000.0
1057.312,5027240000.0
1057.697,4940310000.0
1058.082,4881920000.0
1058.467,4874230000.0
1058.853,4936250000.0
1059.238,5050270000.0
1059.623,5216610000.0
1060.0,5431210000.0
1060.188,5570660000.0
1060.377,5714900000.0
1060.754,6061190000.0
1060.942,6257760000.0
1061.131,6490420000.0
1061.319,6749800000.0
1061.508,7029180000.0
1061.696,7372280000.0
1061.885,7747740000.0
1062.073,8181320000.0
1062.262,8683270000.0
1062.45,9235670000.0
1062.639,9848290000.0
1062.827,10532800000.0
1063.016,11298800000.0
1063.204,12107000000.0
1063.393,13008700000.0
1063.77,14936800000.0
1064.146,17014000000.0
1064.523,19154900000.0
1065.0,21717100000.0
1065.477,24117500000.0
1065.953,26562800000.0
1066.43,29228800000.0
1066.906,32116000000.0
1067.383,34947500000.0
1067.859,37127200000.0
1068.098,37819300000.0
1068.336,38066200000.0
1068.574,38067400000.0
1068.812,37541400000.0
1069.051,36894800000.0
1069.289,35813900000.0
1069.766,33515600000.0
1070.0,32364400000.0
1070.469,30278000000.0
1070.703,29462300000.0
1070.938,28697900000.0
1071.172,28124400000.0
1071.406,27624200000.0
1071.875,26891300000.0
1072.344,26300900000.0
1072.812,25638500000.0
1073.281,24724500000.0
1073.75,23514000000.0
1074.219,22104700000.0
1074.688,20653000000.0
1075.0,19730300000.0
1075.312,18946600000.0
1075.625,18291900000.0
1075.938,17783500000.0
1076.25,17520800000.0
1076.562,17385400000.0
1076.875,17515200000.0
1077.188,17871700000.0
1077.5,18395400000.0
1077.812,19336000000.0
1078.125,20501800000.0
1078.281,21246400000.0
1078.438,22033300000.0
1078.594,22963600000.0
1078.75,24030900000.0
1078.906,25176300000.0
1079.062,26464100000.0
1079.219,27927300000.0
1079.375,29510500000.0
1079.531,31242600000.0
1079.688,33174100000.0
1079.844,35282100000.0
1080.0,37600300000.0
1080.156,40092500000.0
1080.312,42833400000.0
1080.469,45868000000.0
1080.625,49061400000.0
1080.781,52555500000.0
1080.938,56427800000.0
1081.25,64769300000.0
1081.394,69156300000.0
1081.538,73833300000.0
1081.826,83619900000.0
1081.97,89255500000.0
1082.114,94696800000.0
1082.258,100414000000.0
1082.401,106647000000.0
1082.689,119329000000.0
1082.883,128533000000.0
1083.077,138091000000.0
1083.465,157816000000.0
1084.24,198215000000.0
1085.791,277928000000.0
1086.164,295530000000.0
1086.538,312820000000.0
1087.285,345242000000.0
1088.032,374996000000.0
1088.779,402525000000.0
1089.526,428665000000.0
1090.0,443143000000.0
1090.948,471414000000.0
1091.895,494289000000.0
1092.843,513792000000.0
1093.79,530782000000.0
1094.738,545660000000.0
1095.0,549495000000.0
1095.525,555379000000.0
1096.575,565622000000.0
1097.625,570471000000.0
1098.674,571248000000.0
1099.337,568825000000.0
1100.0,563839000000.0
1101.326,551358000000.0
1102.651,533529000000.0
1103.977,512300000000.0
1105.0,495149000000.0
1106.023,472407000000.0
1107.046,450206000000.0
1108.069,422533000000.0
1109.092,395649000000.0
1109.546,380736000000.0
1110.0,366466000000.0
1110.908,339674000000.0
1111.362,323947000000.0
1111.816,308298000000.0
1112.725,279499000000.0
1113.633,252680000000.0
1114.087,240141000000.0
1114.541,228322000000.0
1115.0,217053000000.0
1115.918,194309000000.0
1116.836,174181000000.0
1117.754,153671000000.0
1118.672,135380000000.0
1119.59,116746000000.0
1120.0,108765000000.0
1120.41,101400000000.0
1120.82,94606100000.0
1121.23,87240900000.0
1121.641,79766200000.0
1122.051,73032600000.0
1122.461,66976300000.0
1122.871,61534100000.0
1123.281,55601600000.0
1123.691,49963800000.0
1124.102,45059700000.0
1124.512,40774100000.0
1124.922,37025400000.0
1125.0,36364300000.0
1125.078,35515200000.0
1125.156,34691200000.0
1125.312,33119000000.0
1125.625,30256600000.0
1125.781,28961800000.0
1125.938,27749000000.0
1126.25,25539200000.0
1126.406,24532700000.0
1126.562,23585400000.0
1126.875,21852800000.0
1127.188,20079100000.0
1127.5,18399700000.0
1127.812,16952000000.0
1128.125,15708700000.0
1128.438,14638600000.0
1128.75,13713400000.0
1129.062,12872400000.0
1129.688,11256500000.0
1129.844,10929400000.0
1130.0,10627100000.0
1130.312,10088800000.0
1130.625,9625660000.0
1130.938,9225370000.0
1131.154,8933340000.0
1131.587,8408590000.0
1131.804,8188660000.0
1132.02,7993300000.0
1132.308,7769800000.0
1132.596,7577100000.0
1132.883,7410010000.0
1133.459,7077340000.0
1134.034,6815420000.0
1134.61,6621850000.0
1135.185,6457000000.0
1135.761,6298850000.0
1136.154,6212800000.0
1136.941,6082570000.0
1137.728,5953530000.0
1138.515,5863220000.0
1139.302,5785810000.0
1140.0,5721280000.0
1141.397,5638020000.0
1142.794,5588910000.0
1144.191,5553870000.0
1145.0,5550510000.0
1146.618,5547780000.0
1148.236,5568230000.0
1149.854,5606260000.0
1150.0,5610320000.0
1150.291,5619140000.0
1150.873,5639400000.0
1152.037,5675000000.0
1154.365,5765450000.0
1159.021,5986540000.0
1163.678,6218360000.0
1165.769,6327960000.0
