Wavelength,Flux
900.0,306823000.0
903.442,333906000.0
904.998,346839000.0
906.554,360222000.0
908.11,374067000.0
909.667,388397000.0
910.703,398204000.0
911.74,408242000.0
911.84,409222000.0
912.0,410794000.0
912.31,413856000.0
912.779,418527000.0
913.717,428011000.0
914.335,436872000.0
914.644,444028000.0
914.953,451217000.0
915.141,447404000.0
915.329,444762000.0
915.423,445758000.0
915.517,451880000.0
915.611,455083000.0
915.658,451651000.0
915.705,448984000.0
915.755,449285000.0
915.805,449819000.0
915.824,450022000.0
915.874,450556000.0
915.892,450750000.0
915.942,451527000.0
915.992,456675000.0
916.042,465044000.0
916.092,471466000.0
916.142,473516000.0
916.192,470646000.0
916.242,463374000.0
916.292,456465000.0
916.342,455587000.0
916.429,456528000.0
916.516,457472000.0
916.56,458922000.0
916.603,466396000.0
916.647,478287000.0
916.69,489283000.0
916.74,499900000.0
916.79,505930000.0
916.84,506457000.0
916.89,500871000.0
916.94,489925000.0
917.04,465385000.0
917.09,463736000.0
917.14,464284000.0
917.181,464731000.0
917.262,465628000.0
917.303,466580000.0
917.344,473381000.0
917.385,487516000.0
917.425,503628000.0
917.448,513662000.0
917.498,533252000.0
917.548,550374000.0
917.598,562178000.0
917.648,568201000.0
917.698,568523000.0
917.748,562632000.0
917.798,549258000.0
917.848,530038000.0
917.898,507551000.0
917.948,486620000.0
917.998,475036000.0
918.048,474352000.0
918.098,474912000.0
918.129,475261000.0
918.191,475962000.0
918.223,476313000.0
918.254,477402000.0
918.285,482859000.0
918.316,494413000.0
918.347,509822000.0
918.379,528063000.0
918.441,568087000.0
918.503,606066000.0
918.566,638115000.0
918.628,661936000.0
918.69,677492000.0
918.753,684440000.0
918.815,682267000.0
918.878,669780000.0
918.94,646205000.0
919.002,610788000.0
919.004,609654000.0
919.054,575394000.0
919.154,510511000.0
919.204,491304000.0
919.254,488035000.0
919.302,488592000.0
919.351,489151000.0
919.448,490270000.0
919.497,494442000.0
919.545,514337000.0
919.594,546395000.0
919.642,587337000.0
919.691,631811000.0
919.739,676266000.0
919.788,717836000.0
919.836,755358000.0
919.885,788518000.0
919.933,816629000.0
919.982,840201000.0
920.03,859092000.0
920.079,873500000.0
920.127,883494000.0
920.176,888932000.0
920.224,889282000.0
920.273,884182000.0
920.321,873611000.0
920.37,856756000.0
920.419,833079000.0
920.467,802319000.0
920.516,764146000.0
920.56,723579000.0
920.61,674054000.0
920.66,621477000.0
920.71,573349000.0
920.76,535579000.0
920.81,511701000.0
920.86,506816000.0
920.91,507396000.0
920.96,507992000.0
920.963,508029000.0
921.013,508625000.0
921.113,514491000.0
921.163,539107000.0
921.213,579268000.0
921.263,632552000.0
921.313,693640000.0
921.413,818175000.0
921.463,876692000.0
921.513,931277000.0
921.563,981120000.0
921.613,1025220000.0
921.663,1065490000.0
921.713,1101170000.0
921.763,1132540000.0
921.813,1159580000.0
921.863,1181980000.0
921.963,1215870000.0
922.013,1227340000.0
922.063,1235070000.0
922.117,1239070000.0
922.171,1238080000.0
922.226,1231840000.0
922.28,1219850000.0
922.334,1201550000.0
922.388,1176370000.0
922.443,1142620000.0
922.506,1092500000.0
922.538,1062930000.0
922.569,1030990000.0
922.619,974992000.0
922.669,911478000.0
922.719,843866000.0
922.819,703648000.0
922.857,653351000.0
922.895,609553000.0
922.945,565888000.0
922.992,539895000.0
923.042,533370000.0
923.089,533924000.0
923.114,534236000.0
923.138,534534000.0
923.144,534609000.0
923.15,534684000.0
923.156,534760000.0
923.162,534834000.0
923.187,535146000.0
923.211,535445000.0
923.261,536117000.0
923.308,543886000.0
923.358,573742000.0
923.405,617764000.0
923.455,681711000.0
923.505,755033000.0
923.555,834881000.0
923.605,916244000.0
923.705,1074770000.0
923.794,1205900000.0
923.839,1264260000.0
923.883,1320700000.0
923.933,1380220000.0
924.033,1488250000.0
924.133,1581240000.0
924.183,1622720000.0
924.283,1695550000.0
924.383,1754130000.0
924.436,1780860000.0
924.542,1824730000.0
924.648,1855630000.0
924.688,1863730000.0
924.768,1874050000.0
924.847,1876020000.0
924.927,1868820000.0
924.939,1866890000.0
924.989,1856140000.0
925.089,1821010000.0
925.139,1796010000.0
925.189,1766030000.0
925.239,1730240000.0
925.289,1687530000.0
925.339,1637990000.0
925.389,1583150000.0
925.439,1521690000.0
925.489,1454220000.0
925.539,1382270000.0
925.579,1320350000.0
925.659,1187790000.0
925.699,1116310000.0
925.739,1044220000.0
925.819,896890000.0
925.857,829454000.0
925.895,766223000.0
925.932,707508000.0
925.97,657401000.0
926.008,618822000.0
926.045,590132000.0
926.067,579650000.0
926.117,572876000.0
926.165,573486000.0
926.189,573806000.0
926.214,574138000.0
926.22,574217000.0
926.226,574298000.0
926.232,574377000.0
926.238,574457000.0
926.263,574789000.0
926.287,575108000.0
926.337,575812000.0
926.385,583933000.0
926.435,616710000.0
926.482,665361000.0
926.532,736992000.0
926.582,821253000.0
926.632,916118000.0
926.682,1014520000.0
926.782,1217550000.0
926.873,1397030000.0
927.055,1738800000.0
927.146,1894680000.0
927.237,2038090000.0
927.263,2076090000.0
927.315,2148190000.0
927.418,2280040000.0
927.521,2397530000.0
927.624,2501870000.0
927.727,2594480000.0
927.875,2711980000.0
928.023,2808320000.0
928.172,2886080000.0
928.32,2947560000.0
928.469,2991090000.0
928.487,2995250000.0
928.537,3005110000.0
928.637,3018270000.0
928.837,3015870000.0
928.937,2998270000.0
929.037,2967540000.0
929.097,2942270000.0
929.217,2875330000.0
929.337,2784010000.0
929.397,2728670000.0
929.457,2665760000.0
929.577,2518940000.0
929.638,2433560000.0
929.698,2339730000.0
929.706,2325880000.0
929.756,2239690000.0
929.856,2050590000.0
929.906,1948520000.0
929.956,1842420000.0
930.056,1624660000.0
930.098,1530900000.0
930.182,1343590000.0
930.351,972387000.0
930.386,901604000.0
930.421,837114000.0
930.456,777056000.0
930.491,726713000.0
930.526,687683000.0
930.561,657693000.0
930.589,641981000.0
930.639,635732000.0
930.687,636422000.0
930.711,636772000.0
930.736,637137000.0
930.742,637224000.0
930.748,637311000.0
930.754,637400000.0
930.76,637487000.0
930.785,637851000.0
930.809,638203000.0
930.859,638956000.0
930.907,646671000.0
930.957,681966000.0
931.005,735362000.0
931.055,813440000.0
931.105,906062000.0
931.155,1011750000.0
931.205,1123370000.0
931.255,1241010000.0
931.355,1481380000.0
931.398,1584410000.0
931.484,1796450000.0
931.657,2218870000.0
931.79,2527440000.0
931.857,2670890000.0
931.923,2807690000.0
932.057,3065030000.0
932.19,3297870000.0
932.324,3508690000.0
932.457,3699160000.0
932.591,3866660000.0
932.724,4014190000.0
932.991,4267870000.0
933.033,4303230000.0
933.117,4369670000.0
933.286,4490260000.0
933.624,4692280000.0
933.793,4773510000.0
933.962,4843000000.0
934.276,4941820000.0
934.59,4994760000.0
934.747,5000600000.0
934.904,4992510000.0
935.06,4968660000.0
935.217,4926830000.0
935.374,4866930000.0
935.514,4789540000.0
935.654,4691420000.0
935.794,4569290000.0
935.933,4420460000.0
936.073,4237720000.0
936.213,4021640000.0
936.353,3770120000.0
936.493,3487580000.0
936.623,3192970000.0
936.753,2873100000.0
936.883,2525370000.0
937.013,2163600000.0
937.148,1792130000.0
937.283,1433550000.0
937.418,1096700000.0
937.449,1025570000.0
937.481,960381000.0
937.512,900601000.0
937.544,849814000.0
937.576,809882000.0
937.607,777890000.0
937.642,752574000.0
937.692,746170000.0
937.741,746992000.0
937.766,747411000.0
937.791,747833000.0
937.797,747934000.0
937.803,748034000.0
937.809,748137000.0
937.815,748237000.0
937.84,748658000.0
937.865,749080000.0
937.915,749927000.0
937.964,758079000.0
938.014,799124000.0
938.062,859811000.0
938.112,948402000.0
938.162,1053650000.0
938.212,1173850000.0
938.262,1301630000.0
938.312,1436740000.0
938.362,1574120000.0
938.458,1844660000.0
938.554,2125240000.0
938.65,2414100000.0
938.842,2985980000.0
938.853,3016940000.0
938.903,3158140000.0
939.003,3435030000.0
939.203,3953490000.0
939.403,4428400000.0
939.503,4644050000.0
939.603,4847940000.0
939.703,5038120000.0
939.903,5381570000.0
940.103,5688780000.0
940.303,5960150000.0
940.434,6121050000.0
940.696,6413440000.0
940.958,6663330000.0
941.22,6890280000.0
941.482,7084550000.0
941.744,7255050000.0
942.015,7408660000.0
942.556,7673880000.0
942.894,7811380000.0
943.57,8046000000.0
943.773,8096890000.0
944.18,8177280000.0
944.625,8226630000.0
945.052,8227000000.0
945.478,8175980000.0
945.905,8056060000.0
946.331,7843390000.0
946.705,7558300000.0
947.079,7159530000.0
947.266,6912520000.0
947.453,6629020000.0
947.64,6306090000.0
947.827,5942130000.0
948.014,5525690000.0
948.108,5298520000.0
948.201,5054560000.0
948.295,4802360000.0
948.388,4538150000.0
948.482,4260580000.0
948.575,3970150000.0
948.669,3671770000.0
948.68,3634180000.0
948.73,3466090000.0
948.83,3123750000.0
949.03,2433470000.0
949.08,2265500000.0
949.18,1934930000.0
949.28,1615760000.0
949.38,1325060000.0
949.43,1201590000.0
949.48,1099430000.0
949.53,1026260000.0
949.58,979131000.0
949.63,972654000.0
949.68,973718000.0
949.705,974251000.0
949.73,974784000.0
949.737,974934000.0
949.743,975062000.0
949.749,975191000.0
949.755,975318000.0
949.781,975873000.0
949.806,976407000.0
949.856,977480000.0
949.906,985966000.0
949.956,1035620000.0
950.006,1112080000.0
950.056,1218420000.0
950.106,1346710000.0
950.156,1491970000.0
950.206,1648500000.0
950.256,1813670000.0
950.356,2156720000.0
950.406,2329510000.0
950.506,2689010000.0
950.606,3059620000.0
950.806,3796990000.0
951.006,4491060000.0
951.205,5139690000.0
951.405,5743560000.0
951.604,6291200000.0
951.804,6785150000.0
952.004,7236020000.0
952.203,7648610000.0
952.403,8026300000.0
952.407,8034110000.0
952.457,8123950000.0
952.557,8297540000.0
952.757,8620860000.0
952.957,8918850000.0
953.157,9192420000.0
953.357,9443900000.0
953.557,9675470000.0
953.757,9892820000.0
953.957,10098400000.0
954.008,10149200000.0
954.11,10248400000.0
954.314,10437800000.0
954.721,10793900000.0
955.537,11413600000.0
955.609,11463200000.0
955.753,11559200000.0
956.042,11743200000.0
956.618,12104200000.0
957.211,12435400000.0
958.397,13033400000.0
958.812,13234300000.0
959.643,13620100000.0
960.413,13970300000.0
960.776,14163200000.0
961.14,14322300000.0
961.376,14425900000.0
961.611,14529500000.0
962.081,14738300000.0
963.021,15148600000.0
963.251,15248800000.0
963.71,15449900000.0
964.629,15848600000.0
964.89,15959700000.0
965.412,16181700000.0
966.456,16615500000.0
966.53,16644600000.0
966.678,16702800000.0
966.975,16815100000.0
967.567,17029900000.0
968.169,17220000000.0
969.372,17445900000.0
969.809,17479300000.0
970.683,17458100000.0
970.874,17409900000.0
971.065,17364800000.0
971.161,17343900000.0
971.257,17324100000.0
971.352,17250200000.0
971.448,16850400000.0
971.544,16513000000.0
971.639,16225600000.0
971.831,15755600000.0
971.858,15695700000.0
971.913,15581500000.0
972.022,15325500000.0
972.132,14943900000.0
972.242,14623900000.0
972.268,14554900000.0
972.321,14423600000.0
972.37,14308400000.0
972.469,14097200000.0
972.473,14088000000.0
972.499,14036200000.0
972.524,13987700000.0
972.531,13974300000.0
972.537,13962900000.0
972.543,13951500000.0
972.55,13938400000.0
972.575,13892100000.0
972.601,13845300000.0
972.653,13754800000.0
972.703,13718500000.0
972.803,13662600000.0
972.806,13660900000.0
972.856,13633600000.0
972.956,13580400000.0
973.156,13479600000.0
973.216,13450600000.0
973.336,13414600000.0
973.456,13515900000.0
973.576,13619000000.0
973.626,13662500000.0
973.726,13750800000.0
973.926,13932600000.0
974.326,14420300000.0
974.726,14985800000.0
975.126,15549200000.0
975.265,15772500000.0
975.544,16146900000.0
976.101,16892600000.0
976.503,17334700000.0
976.905,17775700000.0
977.709,18776600000.0
978.512,19861800000.0
978.544,19905500000.0
978.608,19994700000.0
978.735,20156400000.0
978.989,20465400000.0
979.498,21170400000.0
980.184,22297800000.0
980.87,23359900000.0
981.347,23949500000.0
981.823,24380500000.0
982.776,25237800000.0
983.463,25792300000.0
984.837,26987100000.0
985.102,27222500000.0
985.631,27695600000.0
986.69,28588300000.0
986.742,28634300000.0
986.846,28723900000.0
987.053,28903700000.0
987.467,29268800000.0
988.295,30026100000.0
988.381,30090700000.0
988.553,30222200000.0
988.898,30475100000.0
989.588,31059500000.0
990.021,31394200000.0
990.886,31941100000.0
991.66,32521100000.0
992.434,33255700000.0
993.207,34183300000.0
993.3,34310600000.0
993.485,34570700000.0
993.855,35100000000.0
994.595,36143300000.0
995.336,36930900000.0
996.076,37610900000.0
996.65,38283500000.0
997.224,39150200000.0
997.798,40189700000.0
998.947,42210700000.0
1000.0,44201800000.0
1000.956,45318500000.0
1001.912,46169500000.0
1003.824,47417900000.0
1004.688,47830200000.0
1005.553,48028300000.0
1006.417,48013200000.0
1007.282,47861800000.0
1008.146,47559200000.0
1009.011,47054000000.0
1009.875,46354500000.0
1010.74,45530500000.0
1012.469,43638900000.0
1014.198,41645700000.0
1014.249,41590300000.0
1014.349,41483800000.0
1014.549,41274400000.0
1014.749,41060500000.0
1014.949,40857900000.0
1015.149,40647200000.0
1015.349,40442400000.0
1015.549,40245200000.0
1015.749,40046400000.0
1015.928,39878600000.0
1016.286,39532200000.0
1017.002,38880400000.0
1017.657,38281200000.0
1018.968,37012200000.0
1019.386,36546800000.0
1020.223,35427500000.0
1021.06,34000300000.0
1021.115,33884800000.0
1021.225,33654700000.0
1021.446,33195400000.0
1021.887,32096200000.0
1022.329,30714500000.0
1022.55,29921500000.0
1022.77,28974500000.0
1022.844,28653200000.0
1022.991,28003200000.0
1023.139,27189900000.0
1023.286,26372000000.0
1023.581,24558300000.0
1023.729,23477500000.0
1023.876,22385000000.0
1024.024,21203200000.0
1024.171,19708000000.0
1024.319,18299100000.0
1024.466,16900900000.0
1024.574,15746700000.0
1024.682,14550500000.0
1024.898,12122400000.0
1025.006,10874500000.0
1025.114,9627860000.0
1025.223,8287610000.0
1025.438,5610510000.0
1025.465,5327420000.0
1025.492,5083690000.0
1025.519,4879720000.0
1025.546,4712960000.0
1025.596,4528240000.0
1025.646,4476540000.0
1025.654,4476490000.0
1025.681,4478460000.0
1025.708,4480680000.0
1025.715,4481260000.0
1025.72,4481670000.0
1025.722,4481840000.0
1025.729,4482410000.0
1025.736,4482990000.0
1025.763,4485210000.0
1025.79,4487450000.0
1025.844,4512060000.0
1025.871,4568040000.0
1025.898,4668410000.0
1025.925,4807170000.0
1025.952,4995880000.0
1025.979,5227810000.0
1026.005,5492880000.0
1026.056,6067230000.0
1026.106,6703440000.0
1026.156,7363770000.0
1026.206,8040370000.0
1026.256,8704600000.0
1026.306,9369060000.0
1026.356,9996570000.0
1026.406,10619000000.0
1026.438,11005900000.0
1026.501,11752100000.0
1026.628,13289600000.0
1026.87,16118900000.0
1027.112,18762900000.0
1027.355,21236800000.0
1027.597,23640800000.0
1027.839,25638000000.0
1028.082,27532100000.0
1028.324,29198700000.0
1028.566,30806800000.0
1028.6,30995600000.0
1028.668,31372500000.0
1028.803,32131100000.0
1029.073,33572400000.0
1029.344,34805300000.0
1029.614,35965300000.0
1030.155,38004200000.0
1030.329,38598400000.0
1030.676,39795800000.0
1031.37,42241800000.0
1032.058,44462700000.0
1032.745,46362500000.0
1033.433,48147800000.0
1033.787,49055500000.0
1034.495,50597400000.0
1035.203,51967300000.0
1035.516,52727600000.0
1036.142,54576300000.0
1036.455,55683100000.0
1036.768,57007500000.0
1037.246,59324000000.0
1038.202,64270600000.0
1038.975,68740300000.0
1039.748,72744000000.0
1040.521,76474900000.0
1040.704,77475000000.0
1041.07,79566000000.0
1041.803,83802300000.0
1042.433,87205700000.0
1043.694,94438500000.0
1044.162,97451300000.0
1045.099,104061000000.0
1045.495,107295000000.0
1045.892,110896000000.0
1046.685,118392000000.0
1047.621,126113000000.0
1048.557,134143000000.0
1048.81,136975000000.0
1049.317,143200000000.0
1050.0,151815000000.0
1050.683,158112000000.0
1051.366,162989000000.0
1052.731,171136000000.0
1053.414,174051000000.0
1054.097,176498000000.0
1055.0,181156000000.0
1055.903,185732000000.0
1056.806,185020000000.0
1057.708,181433000000.0
1058.16,180655000000.0
1058.611,181387000000.0
1059.063,183772000000.0
1059.514,187852000000.0
1060.0,194135000000.0
1060.486,202285000000.0
1060.729,207408000000.0
1060.972,212903000000.0
1061.215,219797000000.0
1061.458,227462000000.0
1061.7,236724000000.0
1061.943,246938000000.0
1062.186,258983000000.0
1062.429,272862000000.0
1062.672,288843000000.0
1062.915,307220000000.0
1063.158,327212000000.0
1063.401,349400000000.0
1063.644,372706000000.0
1063.887,398311000000.0
1064.373,450018000000.0
1065.0,514515000000.0
1065.627,572617000000.0
1066.255,634290000000.0
1066.882,702471000000.0
1067.51,770819000000.0
1067.823,794848000000.0
1068.137,812405000000.0
1068.451,819219000000.0
1068.765,810860000000.0
1069.078,796562000000.0
1069.392,772757000000.0
1070.0,720986000000.0
1070.608,675179000000.0
1070.912,657158000000.0
1071.216,643701000000.0
1071.52,632451000000.0
1071.824,624678000000.0
1072.432,610945000000.0
1073.04,594068000000.0
1073.647,567309000000.0
1074.255,533685000000.0
1074.863,498430000000.0
1075.0,490819000000.0
1075.273,477501000000.0
1075.547,465468000000.0
1075.82,456707000000.0
1076.094,450049000000.0
1076.367,446809000000.0
1076.641,446524000000.0
1076.914,448917000000.0
1077.188,455703000000.0
1077.461,464859000000.0
1077.734,480169000000.0
1078.008,497548000000.0
1078.281,522602000000.0
1078.555,550874000000.0
1078.828,586582000000.0
1079.102,628440000000.0
1079.375,679140000000.0
1079.648,738768000000.0
1079.824,782639000000.0
1080.0,830915000000.0
1080.176,883057000000.0
1080.352,941243000000.0
1080.527,1006280000000.0
1080.703,1075790000000.0
1080.879,1153060000000.0
1081.055,1236910000000.0
1081.23,1324050000000.0
1081.406,1421780000000.0
1081.538,1500000000000.0
1081.801,1660730000000.0
1082.065,1843810000000.0
1082.328,2032760000000.0
1082.592,2239210000000.0
1082.855,2452920000000.0
1083.077,2646470000000.0
1083.299,2837330000000.0
1083.743,3237460000000.0
1084.187,3643020000000.0
1085.074,4447770000000.0
1085.806,5059480000000.0
1086.538,5646560000000.0
1087.27,6181830000000.0
1088.002,6681940000000.0
1089.465,7612440000000.0
1090.0,7918620000000.0
1091.07,8518450000000.0
1092.139,9013000000000.0
1093.209,9462380000000.0
1095.0,10173900000000.0
1096.791,10758500000000.0
1098.583,11153000000000.0
1099.291,11266500000000.0
1100.0,11339800000000.0
1101.417,11432400000000.0
1102.835,11444500000000.0
1104.252,11438700000000.0
1105.0,11426000000000.0
1106.495,11315700000000.0
1107.99,11116000000000.0
1109.485,10824500000000.0
1110.0,10686200000000.0
1111.029,10409600000000.0
1112.059,10077900000000.0
1113.088,9755220000000.0
1115.0,9233760000000.0
1115.956,9023270000000.0
1116.912,8814870000000.0
1118.824,8406150000000.0
1120.0,8084240000000.0
1121.176,7745570000000.0
1122.352,7341110000000.0
1123.527,6917090000000.0
1125.0,6363360000000.0
1126.473,5692540000000.0
1127.945,4991830000000.0
1130.0,4010000000000.0
1130.577,3750470000000.0
1131.154,3502210000000.0
1132.308,3015680000000.0
1133.462,2587310000000.0
1134.616,2203100000000.0
1135.385,1962970000000.0
1136.154,1736280000000.0
1136.923,1547840000000.0
1137.692,1350150000000.0
1138.077,1264870000000.0
1138.461,1188980000000.0
1138.846,1122100000000.0
1139.23,1051900000000.0
1139.615,983370000000.0
1139.999,923332000000.0
1140.05,916021000000.0
1140.1,908935000000.0
1140.15,901963000000.0
1140.2,895105000000.0
1140.25,888356000000.0
1140.3,881715000000.0
1140.35,875179000000.0
1140.4,868747000000.0
1140.45,862417000000.0
1140.5,856182000000.0
1140.551,850045000000.0
1140.601,844003000000.0
1140.651,838054000000.0
1140.701,832198000000.0
1140.751,826432000000.0
1140.801,820754000000.0
1140.851,815163000000.0
1140.901,809657000000.0
1140.951,804236000000.0
1141.001,798873000000.0
1141.051,792426000000.0
1141.101,786183000000.0
1141.151,780062000000.0
1141.201,774059000000.0
1141.251,768169000000.0
1141.301,762343000000.0
1141.351,756605000000.0
1141.401,750972000000.0
1141.451,745441000000.0
1141.501,740011000000.0
1141.552,734678000000.0
1141.602,729438000000.0
1141.652,724287000000.0
1141.702,719228000000.0
1141.752,714258000000.0
1141.802,709374000000.0
1141.852,704575000000.0
1141.902,699859000000.0
1141.952,695228000000.0
1142.002,690677000000.0
