Wavelength,Flux
900.0,1208570.0
903.442,1343290.0
904.998,1408610.0
906.554,1476860.0
908.11,1548130.0
909.667,1622610.0
910.703,1673980.0
911.74,1726890.0
911.84,1732070.0
912.0,1740390.0
912.31,1756620.0
912.779,1781450.0
913.717,1832050.0
914.335,1866120.0
915.329,1922130.0
915.824,1950590.0
915.892,1954530.0
916.028,1962440.0
916.3,1978350.0
916.429,1985910.0
916.686,2001110.0
917.181,2030630.0
917.448,2046730.0
917.982,2079270.0
918.129,2088320.0
918.423,2106530.0
919.004,2142920.0
919.351,2164910.0
920.045,2209600.0
920.56,2243300.0
920.963,2269890.0
921.769,2324310.0
922.117,2348110.0
922.506,2374960.0
922.895,2402090.0
922.992,2408810.0
923.089,2415510.0
923.114,2417280.0
923.138,2418970.0
923.144,2419390.0
923.15,2419820.0
923.156,2420240.0
923.162,2420660.0
923.187,2422430.0
923.211,2424120.0
923.261,2427660.0
923.308,2431120.0
923.402,2437880.0
923.405,2438100.0
923.455,2441650.0
923.555,2448760.0
923.755,2463080.0
923.794,2465880.0
923.872,2471490.0
924.028,2482710.0
924.183,2493920.0
924.436,2512310.0
924.688,2530760.0
924.939,2549220.0
925.189,2567740.0
925.579,2596940.0
925.97,2626720.0
926.067,2634170.0
926.165,2641430.0
926.189,2643280.0
926.214,2645180.0
926.22,2645640.0
926.226,2646110.0
926.232,2646570.0
926.238,2647020.0
926.263,2648940.0
926.287,2650780.0
926.337,2654630.0
926.385,2658540.0
926.481,2665850.0
926.532,2669650.0
926.632,2677310.0
926.832,2692780.0
926.873,2695960.0
926.955,2702340.0
927.119,2715130.0
927.263,2726360.0
927.551,2749050.0
927.875,2774860.0
928.487,2824220.0
929.097,2874330.0
929.706,2925000.0
930.098,2958100.0
930.491,2991990.0
930.589,3000780.0
930.687,3008950.0
930.711,3011020.0
930.736,3013180.0
930.742,3013690.0
930.748,3014210.0
930.754,3014730.0
930.76,3015250.0
930.785,3017410.0
930.809,3019490.0
930.859,3023820.0
930.907,3028240.0
931.003,3036160.0
931.005,3036330.0
931.055,3040430.0
931.155,3049180.0
931.355,3066680.0
931.398,3070440.0
931.484,3077980.0
931.656,3093110.0
931.79,3105070.0
932.058,3129070.0
932.593,3177410.0
933.033,3217560.0
933.914,3299290.0
934.276,3333620.0
935.001,3403070.0
935.514,3452890.0
936.54,3555070.0
936.753,3576490.0
937.148,3616230.0
937.544,3656110.0
937.642,3666910.0
937.741,3676870.0
937.766,3679450.0
937.791,3682050.0
937.797,3682670.0
937.803,3683290.0
937.809,3683910.0
937.815,3684530.0
937.84,3687140.0
937.865,3689730.0
937.915,3694940.0
937.964,3700330.0
938.062,3709920.0
938.258,3731040.0
938.458,3752640.0
938.853,3794490.0
939.643,3879910.0
940.434,3966780.0
942.015,4145990.0
942.894,4248430.0
943.773,4352870.0
944.625,4456250.0
945.478,4562560.0
947.079,4768090.0
948.68,4982640.0
949.08,5039920.0
949.48,5095570.0
949.58,5110360.0
949.68,5123990.0
949.705,5127510.0
949.73,5131020.0
949.737,5132000.0
949.743,5132840.0
949.749,5133700.0
949.755,5134530.0
949.781,5138200.0
949.806,5141720.0
949.856,5148790.0
949.906,5156230.0
950.006,5169550.0
950.056,5177180.0
950.156,5192040.0
950.356,5219310.0
950.406,5225700.0
950.506,5238400.0
950.706,5266320.0
950.806,5280120.0
951.005,5308370.0
951.404,5366370.0
952.202,5483450.0
952.407,5513720.0
952.816,5574760.0
953.635,5698900.0
954.008,5756260.0
954.753,5872520.0
955.609,6008350.0
957.211,6272280.0
958.812,6547310.0
960.413,6833160.0
960.776,6899530.0
961.14,6966690.0
961.376,7010530.0
961.611,7054460.0
962.081,7143060.0
963.021,7323630.0
963.251,7368360.0
963.71,7458570.0
964.629,7642040.0
964.89,7694930.0
965.412,7801700.0
966.456,8019730.0
966.53,8035440.0
966.678,8066950.0
966.975,8130310.0
967.567,8258450.0
968.169,8390440.0
969.372,8660400.0
969.809,8760500.0
970.683,8964210.0
971.448,9146470.0
971.858,9245340.0
972.268,9345230.0
972.37,9370230.0
972.473,9395550.0
972.499,9401950.0
972.524,9408090.0
972.531,9409820.0
972.537,9411300.0
972.543,9412780.0
972.55,9414500.0
972.575,9420670.0
972.601,9427090.0
972.653,9439930.0
972.703,9452290.0
972.803,9477050.0
972.806,9477810.0
972.856,9490210.0
972.956,9515070.0
973.156,9565000.0
973.216,9580010.0
973.336,9610130.0
973.576,9670660.0
973.626,9683320.0
973.726,9708690.0
973.926,9759620.0
974.326,9862320.0
975.126,10071300.0
975.265,10108200.0
975.544,10182300.0
976.101,10331900.0
976.905,10551200.0
978.512,11003300.0
978.544,11012400.0
978.608,11030700.0
978.735,11067300.0
978.989,11141100.0
979.498,11290100.0
980.184,11493900.0
981.556,11912500.0
981.823,11995700.0
982.357,12163600.0
983.424,12506800.0
983.463,12519400.0
983.54,12544600.0
983.694,12595200.0
984.003,12696900.0
984.62,12902600.0
985.102,13065500.0
986.065,13397200.0
986.742,13635200.0
988.095,14123300.0
988.381,14228600.0
988.953,14441400.0
990.021,14847200.0
991.66,15490800.0
993.3,16163100.0
996.58,17595100.0
996.65,17627000.0
996.79,17691000.0
997.07,17819600.0
997.63,18079600.0
998.75,18611100.0
1000.0,19222300.0
1001.912,20194700.0
1003.824,21209000.0
1005.553,22169800.0
1007.282,23173000.0
1009.011,24220900.0
1010.74,25315200.0
1012.469,26457000.0
1014.199,27649200.0
1015.928,28877500.0
1017.657,30149000.0
1019.386,31460200.0
1021.115,32777600.0
1022.844,33952400.0
1023.709,34261900.0
1024.574,34132300.0
1025.006,34193700.0
1025.438,34571100.0
1025.546,34656700.0
1025.654,34744800.0
1025.681,34766400.0
1025.708,34788200.0
1025.715,34793800.0
1025.72,34797800.0
1025.722,34799500.0
1025.729,34805100.0
1025.736,34810600.0
1025.763,34832400.0
1025.79,34854200.0
1025.844,34900200.0
1025.898,34940900.0
1026.005,35029400.0
1026.056,35070400.0
1026.106,35103200.0
1026.156,35135900.0
1026.206,35167600.0
1026.256,35193100.0
1026.306,35225500.0
1026.356,35265500.0
1026.406,35308500.0
1026.438,35342200.0
1026.501,35414000.0
1026.628,35587200.0
1026.87,35983400.0
1027.355,36946300.0
1028.324,38644300.0
1028.6,39044300.0
1029.152,39759400.0
1030.257,41057900.0
1030.329,41140200.0
1030.474,41304700.0
1030.763,41633000.0
1031.341,42282500.0
1032.058,43073700.0
1033.493,44649500.0
1033.787,44976400.0
1034.376,45632200.0
1035.516,46922800.0
1037.246,48957300.0
1038.975,51062700.0
1040.704,53244600.0
1042.433,55514700.0
1044.162,57876700.0
1045.892,60335000.0
1047.621,62881200.0
1048.81,64659400.0
1050.0,66487100.0
1052.38,70287600.0
1055.0,74685000.0
1057.62,79314400.0
1060.0,83751000.0
1064.76,93244800.0
1065.0,93749700.0
1065.48,94766600.0
1066.441,96828000.0
1068.363,101061000.0
1070.0,104772000.0
1073.273,112591000.0
1075.0,116924000.0
1078.453,125972000.0
1080.0,130235000.0
1081.538,134612000.0
1083.077,139120000.0
1086.155,148464000.0
1086.538,149665000.0
1087.304,152093000.0
1088.835,157063000.0
1090.0,160949000.0
1092.33,168972000.0
1095.0,178526000.0
1097.67,188579000.0
1100.0,197787000.0
1104.661,217301000.0
1105.0,218784000.0
1105.679,221778000.0
1107.036,227880000.0
1109.751,240541000.0
1110.0,241734000.0
1110.498,244137000.0
1111.494,248981000.0
1113.486,258865000.0
1115.0,266599000.0
1118.027,282560000.0
1120.0,293223000.0
1123.945,315327000.0
1125.0,321410000.0
1127.109,333695000.0
1130.0,350792000.0
1131.154,357719000.0
1132.308,364614000.0
1134.616,378547000.0
1136.154,387789000.0
1139.23,406275000.0
1140.0,410778000.0
1141.539,419904000.0
1144.617,438155000.0
1145.0,440501000.0
1145.766,444954000.0
1147.297,454200000.0
1150.0,470735000.0
1152.703,487823000.0
1155.406,505208000.0
1158.109,523194000.0
1160.812,542451000.0
1163.516,563148000.0
1165.769,582274000.0
1170.276,625692000.0
1174.783,675413000.0
1179.29,729497000.0
1181.538,757907000.0
1185.628,812106000.0
1189.718,869709000.0
1191.767,899884000.0
1193.816,931072000.0
1195.866,963301000.0
1197.915,996374000.0
1199.964,1030380000.0
1202.014,1065290000.0
1204.063,1101330000.0
1206.113,1138230000.0
1208.162,1176230000.0
1210.211,1215530000.0
1212.261,1256120000.0
1214.31,1297670000.0
1214.822,1308240000.0
1215.335,1318910000.0
1215.463,1321590000.0
1215.591,1324250000.0
1215.623,1324930000.0
1215.655,1325600000.0
1215.663,1325770000.0
1215.67,1325910000.0
1215.679,1326100000.0
1215.687,1326270000.0
1215.719,1326940000.0
1215.751,1327610000.0
1215.815,1328970000.0
1215.879,1330330000.0
1216.007,1333040000.0
1216.263,1338470000.0
1216.52,1343950000.0
1217.032,1354850000.0
1218.056,1376670000.0
1219.081,1399250000.0
1221.131,1445080000.0
1223.18,1491190000.0
1225.229,1538370000.0
1227.279,1587950000.0
1229.328,1638940000.0
1231.378,1691360000.0
1233.427,1745250000.0
1235.476,1800730000.0
1237.526,1857800000.0
1239.575,1916450000.0
1241.625,1976760000.0
1245.725,2102430000.0
1249.825,2235200000.0
1250.812,2268230000.0
1252.786,2335600000.0
1256.733,2475670000.0
1260.0,2597410000.0
1263.267,2725090000.0
1265.0,2795030000.0
1268.466,2939400000.0
1270.0,3005800000.0
1273.068,3142740000.0
1275.0,3231380000.0
1278.863,3417590000.0
1280.0,3474050000.0
1282.273,3588960000.0
1285.0,3729250000.0
1287.727,3874940000.0
1290.0,4000440000.0
1294.547,4264280000.0
1295.0,4291590000.0
1295.906,4346690000.0
1297.719,4458410000.0
1300.0,4601870000.0
1305.0,4926730000.0
1310.0,5271410000.0
1315.0,5637490000.0
1320.0,6025990000.0
1325.0,6438380000.0
1330.0,6876380000.0
1335.0,7340350000.0
1340.0,7829740000.0
1345.0,8345720000.0
1350.0,8891310000.0
1355.0,9469600000.0
1360.0,10078000000.0
1365.0,10720400000.0
1370.0,11399400000.0
1374.231,12000600000.0
1378.462,12628100000.0
1379.231,12745200000.0
1380.0,12863300000.0
1381.538,13102400000.0
1384.614,13592300000.0
1385.0,13654800000.0
1385.771,13780600000.0
1387.314,14035100000.0
1390.0,14487700000.0
1395.0,15364000000.0
1400.0,16285600000.0
1405.0,17255200000.0
1410.0,18276200000.0
1415.0,19348500000.0
1420.0,20471900000.0
1425.0,21650700000.0
1430.0,22887700000.0
1435.0,24180600000.0
1440.0,25528500000.0
1445.0,26936400000.0
1450.0,28408500000.0
1455.0,29946600000.0
1460.0,31555200000.0
1465.0,33236300000.0
1470.0,35003000000.0
1473.462,36277600000.0
1476.923,37594900000.0
1478.462,38195100000.0
1480.0,38804300000.0
1483.076,40051200000.0
1485.0,40850900000.0
1488.848,42494200000.0
1490.0,42996800000.0
1492.304,44015700000.0
1495.0,45228800000.0
1500.0,47534500000.0
1505.0,49923400000.0
1510.0,52424400000.0
1515.0,55060400000.0
1520.0,57820400000.0
1525.0,60653000000.0
1530.0,63502500000.0
1535.0,66367700000.0
1540.0,69310100000.0
1545.0,72400400000.0
1550.0,75673300000.0
1555.0,79130100000.0
1560.0,82740000000.0
1565.0,86453900000.0
1570.0,90235400000.0
1572.692,92299200000.0
1575.385,94388100000.0
1577.692,96204600000.0
1580.0,98052300000.0
1584.616,101862000000.0
1585.0,102187000000.0
1585.768,102841000000.0
1587.304,104162000000.0
1590.0,106534000000.0
1595.0,111125000000.0
1600.0,115985000000.0
1605.0,121138000000.0
1610.0,126614000000.0
1615.0,132433000000.0
1620.0,138627000000.0
1625.0,145220000000.0
1630.0,152213000000.0
1635.0,159594000000.0
1640.0,167357000000.0
1645.0,175448000000.0
1650.0,183865000000.0
1655.0,192541000000.0
1660.0,201512000000.0
1665.0,210784000000.0
1670.0,220396000000.0
1671.923,224179000000.0
1673.846,228032000000.0
1676.923,234343000000.0
1680.0,240837000000.0
1685.0,251756000000.0
1690.0,263241000000.0
1695.0,275391000000.0
1700.0,288331000000.0
1705.0,302232000000.0
1710.0,317413000000.0
1715.0,334393000000.0
1720.0,353730000000.0
1725.0,376572000000.0
1727.5,389492000000.0
1730.0,403767000000.0
1735.0,436405000000.0
1737.5,454637000000.0
1740.0,475661000000.0
1745.0,520908000000.0
1747.5,546306000000.0
1750.0,574301000000.0
1755.0,635221000000.0
1760.0,701518000000.0
1761.154,717332000000.0
1763.462,749008000000.0
1768.078,818275000000.0
1772.308,884288000000.0
1780.767,1023930000000.0
1789.226,1166710000000.0
1806.145,1463980000000.0
1821.539,1745160000000.0
1836.933,2040670000000.0
1852.327,2355830000000.0
1867.721,2695050000000.0
1870.769,2765730000000.0
1876.865,2910040000000.0
1889.057,3213990000000.0
1901.249,3539230000000.0
1913.441,3886820000000.0
1920.0,4084930000000.0
1933.119,4504380000000.0
1946.237,4955470000000.0
1959.356,5437700000000.0
1969.231,5822650000000.0
1988.981,6651130000000.0
2008.731,7550650000000.0
2018.462,8028250000000.0
2037.924,9043050000000.0
2047.655,9588800000000.0
2057.386,10167400000000.0
2067.692,10813200000000.0
2077.998,11499300000000.0
2088.303,12221100000000.0
2098.609,12988500000000.0
2108.915,13784200000000.0
2116.923,14434200000000.0
2132.94,15774800000000.0
2148.957,17171000000000.0
2164.974,18596500000000.0
2166.154,18698200000000.0
2168.513,18903100000000.0
2173.232,19319200000000.0
2182.67,20157100000000.0
2201.545,21776800000000.0
2215.385,22953400000000.0
2229.225,24174400000000.0
2243.066,25451000000000.0
2256.906,26815500000000.0
2264.615,27621400000000.0
2280.033,29333600000000.0
2295.451,31269600000000.0
2310.869,33484500000000.0
2313.846,33945600000000.0
2319.8,34889400000000.0
2331.708,37092300000000.0
2343.616,39552900000000.0
2355.525,42428500000000.0
2363.077,44440300000000.0
2370.629,46653600000000.0
2378.181,49047100000000.0
2393.286,54344200000000.0
2400.838,57335600000000.0
2408.39,60346600000000.0
2412.307,62015900000000.0
2420.14,65593600000000.0
2435.806,72689500000000.0
2451.472,80022900000000.0
2461.538,84944100000000.0
2471.604,89369000000000.0
2481.67,94023700000000.0
2491.737,98112000000000.0
2501.803,102326000000000.0
2510.769,105592000000000.0
2528.702,111914000000000.0
2546.634,117596000000000.0
2560.0,121524000000000.0
2573.366,125049000000000.0
2586.731,128443000000000.0
2600.097,131683000000000.0
2613.463,134697000000000.0
2626.829,137632000000000.0
2640.194,140481000000000.0
2653.56,143203000000000.0
2658.461,144202000000000.0
2668.263,146136000000000.0
2687.866,150203000000000.0
2707.47,154310000000000.0
2727.073,157779000000000.0
2746.677,161224000000000.0
2756.923,163020000000000.0
2767.169,164805000000000.0
2777.416,166586000000000.0
2787.662,168363000000000.0
2797.908,170136000000000.0
2808.155,171904000000000.0
2818.401,173668000000000.0
2828.647,175427000000000.0
2838.894,177180000000000.0
2849.14,178928000000000.0
2855.385,179991000000000.0
2867.875,182101000000000.0
2880.365,184203000000000.0
2892.854,186295000000000.0
2905.344,188377000000000.0
2917.834,190449000000000.0
2930.323,192511000000000.0
2942.813,194561000000000.0
2945.1,194935000000000.0
2949.674,195682000000000.0
2953.846,196363000000000.0
2962.19,197713000000000.0
2978.879,200398000000000.0
2995.567,203060000000000.0
3012.256,205700000000000.0
3028.944,208317000000000.0
3045.633,210910000000000.0
3052.308,211941000000000.0
3065.659,213983000000000.0
3079.01,216008000000000.0
3092.361,218018000000000.0
3105.712,220010000000000.0
3119.063,221984000000000.0
3132.415,223942000000000.0
3145.766,225881000000000.0
3150.769,226604000000000.0
3160.776,228040000000000.0
3170.783,229466000000000.0
3180.79,230882000000000.0
3187.7,231854000000000.0
3201.521,233782000000000.0
3215.342,235690000000000.0
3229.162,237578000000000.0
3242.983,239445000000000.0
3249.231,240282000000000.0
3261.727,241943000000000.0
3274.222,243588000000000.0
3286.718,245215000000000.0
3299.213,246824000000000.0
3311.709,248416000000000.0
3324.205,249990000000000.0
3336.7,251547000000000.0
3347.692,252902000000000.0
3358.684,254243000000000.0
3369.675,255570000000000.0
3380.667,256883000000000.0
3391.659,258182000000000.0
3402.65,259467000000000.0
3413.642,260738000000000.0
3424.634,261995000000000.0
3435.625,263238000000000.0
3446.154,264415000000000.0
3456.683,265577000000000.0
3467.211,266725000000000.0
3477.74,267861000000000.0
3488.268,268983000000000.0
3498.797,270092000000000.0
3509.325,271188000000000.0
3519.854,272272000000000.0
3530.383,273342000000000.0
3540.911,274399000000000.0
3544.615,274768000000000.0
3552.023,275498000000000.0
3566.838,276939000000000.0
3581.654,278355000000000.0
3595.868,279689000000000.0
3610.082,280997000000000.0
3624.297,282282000000000.0
3638.511,283543000000000.0
3646.5,284242000000000.0
3647.0,284285000000000.0
3647.12,284296000000000.0
3647.22,283870000000000.0
3647.42,283887000000000.0
3647.819,283922000000000.0
3648.0,283938000000000.0
3648.362,283970000000000.0
3649.085,284034000000000.0
3650.533,284161000000000.0
3653.427,284414000000000.0
3659.216,284917000000000.0
3665.005,285416000000000.0
3668.675,285731000000000.0
3676.014,286355000000000.0
3682.807,286927000000000.0
3686.832,287263000000000.0
3690.13,287538000000000.0
3691.554,287655000000000.0
3694.402,287891000000000.0
3696.486,288063000000000.0
3697.152,288117000000000.0
3698.484,288226000000000.0
3701.148,288445000000000.0
3702.843,288583000000000.0
3703.853,288664000000000.0
3705.0,288759000000000.0
3707.294,288945000000000.0
3709.2,289099000000000.0
3711.971,289320000000000.0
3715.556,289610000000000.0
3721.913,290112000000000.0
3721.938,290114000000000.0
3721.988,290118000000000.0
3722.038,290123000000000.0
3722.088,290128000000000.0
3722.138,290132000000000.0
3722.188,290137000000000.0
3722.238,290141000000000.0
3722.288,290146000000000.0
3722.338,290150000000000.0
3722.388,290154000000000.0
3722.438,290158000000000.0
3722.489,290162000000000.0
3722.539,290166000000000.0
3722.589,290170000000000.0
3722.639,290174000000000.0
3722.689,290178000000000.0
3722.739,290182000000000.0
3722.789,290186000000000.0
3722.839,290190000000000.0
3722.889,290194000000000.0
3722.939,290198000000000.0
3722.989,290202000000000.0
3723.039,290206000000000.0
3723.089,290210000000000.0
3723.139,290214000000000.0
3723.189,290218000000000.0
3723.239,290222000000000.0
3723.289,290226000000000.0
3723.339,290230000000000.0
3723.389,290234000000000.0
3723.439,290238000000000.0
3723.49,290241000000000.0
3723.54,290246000000000.0
3723.59,290250000000000.0
3723.64,290254000000000.0
3723.69,290257000000000.0
3723.74,290261000000000.0
3723.79,290266000000000.0
3723.84,290269000000000.0
3723.89,290273000000000.0
3723.94,290277000000000.0
3723.99,290281000000000.0
3724.04,290285000000000.0
3724.09,290289000000000.0
3724.14,290293000000000.0
3724.19,290297000000000.0
3724.24,290301000000000.0
3724.29,290305000000000.0
3724.34,290309000000000.0
3724.39,290313000000000.0
3724.44,290317000000000.0
3724.49,290321000000000.0
3724.541,290325000000000.0
3724.591,290329000000000.0
3724.641,290333000000000.0
3724.691,290336000000000.0
3724.741,290341000000000.0
3724.791,290345000000000.0
3724.841,290349000000000.0
3724.891,290352000000000.0
3724.941,290356000000000.0
3724.991,290360000000000.0
3725.041,290364000000000.0
3725.091,290368000000000.0
3725.141,290372000000000.0
3725.191,290376000000000.0
3725.241,290380000000000.0
3725.291,290384000000000.0
3725.341,290388000000000.0
3725.391,290392000000000.0
3725.441,290396000000000.0
3725.491,290400000000000.0
3725.542,290404000000000.0
3725.592,290408000000000.0
3725.642,290412000000000.0
3725.692,290416000000000.0
3725.742,290419000000000.0
3725.792,290424000000000.0
3725.842,290427000000000.0
3725.892,290432000000000.0
3725.942,290435000000000.0
3725.992,290439000000000.0
3726.042,290443000000000.0
3726.092,290447000000000.0
3726.142,290451000000000.0
3726.192,290455000000000.0
3726.242,290459000000000.0
3726.292,290463000000000.0
3726.342,290467000000000.0
3726.392,290471000000000.0
3726.442,290475000000000.0
3726.492,290479000000000.0
3726.542,290483000000000.0
3726.593,290487000000000.0
3726.643,290491000000000.0
3726.693,290494000000000.0
3726.743,290499000000000.0
3726.793,290502000000000.0
3726.843,290506000000000.0
3726.893,290510000000000.0
3726.943,290514000000000.0
3726.993,290518000000000.0
3727.043,290522000000000.0
3727.093,290526000000000.0
3727.143,290530000000000.0
3727.193,290534000000000.0
3727.243,290538000000000.0
3727.293,290542000000000.0
3727.343,290546000000000.0
3727.393,290550000000000.0
3727.443,290554000000000.0
3727.493,290558000000000.0
3727.543,290561000000000.0
3727.594,290566000000000.0
3727.644,290570000000000.0
3727.694,290573000000000.0
3727.744,290577000000000.0
3727.794,290581000000000.0
3727.844,290585000000000.0
3727.894,290589000000000.0
3727.944,290593000000000.0
3727.994,290597000000000.0
3728.044,290601000000000.0
3728.094,290605000000000.0
3728.144,290609000000000.0
3728.194,290613000000000.0
3728.244,290617000000000.0
3728.269,290619000000000.0
3728.319,290623000000000.0
3728.369,290626000000000.0
3728.419,290630000000000.0
3728.469,290634000000000.0
