Wavelength,Flux
900.0,1099920.0
903.442,1222970.0
904.998,1282650.0
906.554,1345010.0
908.11,1410140.0
909.667,1478220.0
910.703,1525170.0
911.74,1573550.0
911.84,1578290.0
912.0,1585900.0
912.31,1600740.0
912.779,1623430.0
913.717,1669710.0
914.335,1700860.0
915.329,1752090.0
915.824,1778130.0
915.892,1781740.0
916.028,1788970.0
916.3,1803520.0
916.429,1810430.0
916.686,1824340.0
917.181,1851340.0
917.448,1866150.0
917.982,1895950.0
918.129,1904130.0
918.423,1921380.0
919.004,1955530.0
919.351,1974200.0
920.045,2019500.0
920.56,2051730.0
920.963,2070270.0
921.366,2104230.0
921.769,2132560.0
922.117,2156250.0
922.506,2182630.0
922.895,2204380.0
922.992,2202700.0
923.089,2203550.0
923.114,2205160.0
923.138,2206710.0
923.144,2207100.0
923.15,2207490.0
923.156,2207870.0
923.162,2208260.0
923.187,2209880.0
923.211,2211430.0
923.261,2215460.0
923.308,2223520.0
923.402,2238870.0
923.405,2239250.0
923.455,2245150.0
923.555,2254990.0
923.755,2271540.0
923.794,2274600.0
923.872,2280590.0
924.028,2292300.0
924.183,2303790.0
924.436,2322380.0
924.688,2340890.0
924.939,2359650.0
925.189,2378440.0
925.579,2406810.0
925.97,2422340.0
926.067,2412680.0
926.164,2410310.0
926.189,2412060.0
926.214,2413810.0
926.22,2414230.0
926.226,2414660.0
926.232,2415080.0
926.238,2415500.0
926.263,2417250.0
926.287,2418940.0
926.337,2423580.0
926.385,2435350.0
926.481,2460210.0
926.532,2469220.0
926.632,2483050.0
926.832,2502970.0
926.873,2506670.0
926.955,2513810.0
927.119,2527720.0
927.263,2539490.0
927.551,2562660.0
927.875,2588690.0
928.487,2638030.0
929.097,2688310.0
929.706,2738290.0
930.098,2768110.0
930.491,2771970.0
930.589,2751930.0
930.687,2746960.0
930.711,2748860.0
930.736,2750840.0
930.742,2751320.0
930.748,2751790.0
930.754,2752270.0
930.76,2752740.0
930.785,2754720.0
930.809,2756620.0
930.859,2762040.0
930.907,2777380.0
931.003,2813600.0
931.005,2814310.0
931.055,2828340.0
931.155,2848080.0
931.355,2874680.0
931.398,2879240.0
931.484,2887810.0
931.656,2904760.0
931.79,2917440.0
932.058,2942010.0
932.593,2990360.0
933.033,3030390.0
933.914,3111020.0
934.276,3144450.0
935.001,3212390.0
935.514,3260910.0
936.54,3358730.0
936.753,3378760.0
937.148,3412580.0
937.346,3420240.0
937.544,3399370.0
937.642,3367590.0
937.74,3358930.0
937.766,3361400.0
937.791,3363780.0
937.797,3364350.0
937.803,3364920.0
937.809,3365500.0
937.815,3366060.0
937.84,3368440.0
937.865,3370820.0
937.915,3377500.0
937.964,3398480.0
938.062,3449890.0
938.16,3486610.0
938.258,3511250.0
938.454,3543770.0
938.458,3544280.0
938.508,3550580.0
938.608,3562420.0
938.808,3587000.0
938.853,3592390.0
938.943,3602900.0
939.123,3623330.0
939.484,3662990.0
940.204,3741780.0
940.434,3766810.0
940.893,3817130.0
941.812,3919120.0
942.015,3941900.0
942.421,3987980.0
942.894,4042270.0
943.773,4145370.0
944.625,4247500.0
945.478,4351450.0
947.079,4553210.0
948.68,4752950.0
949.08,4780230.0
949.28,4783880.0
949.48,4744170.0
949.58,4697390.0
949.68,4686380.0
949.705,4689610.0
949.73,4692830.0
949.737,4693740.0
949.743,4694510.0
949.749,4695290.0
949.755,4696060.0
949.781,4699430.0
949.806,4702660.0
949.856,4711400.0
949.906,4739740.0
950.006,4813170.0
950.056,4843150.0
950.156,4888560.0
950.356,4947840.0
950.406,4958810.0
950.506,4984660.0
950.706,5026030.0
950.806,5044310.0
951.005,5079520.0
951.404,5142540.0
952.202,5263220.0
952.407,5294400.0
952.816,5356840.0
953.635,5482800.0
954.008,5540900.0
954.753,5659020.0
955.609,5797740.0
957.211,6066760.0
958.812,6345980.0
960.413,6637760.0
960.776,6705700.0
961.14,6774530.0
961.376,6819510.0
961.611,6864750.0
962.081,6956220.0
963.021,7142250.0
963.251,7188440.0
963.71,7281090.0
964.629,7468810.0
964.89,7522990.0
965.412,7632560.0
966.456,7856570.0
966.53,7872760.0
966.678,7905250.0
966.975,7970670.0
967.567,8102830.0
968.169,8239290.0
969.372,8519120.0
969.809,8622850.0
970.683,8832570.0
971.448,9018350.0
971.858,9117580.0
972.268,9216110.0
972.37,9240550.0
972.473,9265230.0
972.499,9271470.0
972.524,9277460.0
972.531,9279140.0
972.537,9280600.0
972.543,9282040.0
972.55,9283700.0
972.575,9289720.0
972.601,9295980.0
972.653,9308460.0
972.703,9320810.0
972.803,9345640.0
972.806,9346410.0
972.856,9358850.0
972.956,9383770.0
973.156,9433810.0
973.216,9448860.0
973.336,9479180.0
973.576,9542520.0
973.626,9555750.0
973.726,9582350.0
973.926,9635780.0
974.326,9744490.0
975.126,9965600.0
975.265,10004700.0
975.544,10083000.0
976.101,10240900.0
976.905,10470100.0
978.512,10941800.0
978.544,10951200.0
978.608,10970100.0
978.735,11007800.0
978.989,11083800.0
979.498,11237300.0
980.184,11447900.0
981.556,11881400.0
981.823,11967600.0
982.357,12142100.0
983.424,12499400.0
983.463,12512500.0
983.54,12538800.0
983.694,12591500.0
984.003,12697900.0
984.62,12913000.0
985.102,13083200.0
986.065,13431200.0
986.742,13681500.0
988.095,14185500.0
988.381,14294000.0
988.953,14513500.0
990.021,14932900.0
991.66,15601300.0
993.3,16303100.0
996.58,17812100.0
996.65,17845900.0
996.79,17913800.0
997.07,18050200.0
997.63,18322500.0
998.75,18873800.0
1000.0,19510700.0
1001.912,20521300.0
1003.824,21578800.0
1005.553,22578400.0
1007.282,23615300.0
1009.011,24703100.0
1010.74,25821500.0
1012.469,26993400.0
1014.199,28205100.0
1015.928,29456200.0
1017.657,30728200.0
1019.386,31965100.0
1021.115,33139800.0
1021.979,33573000.0
1022.844,33771600.0
1023.708,33573400.0
1024.573,33017300.0
1024.624,32987400.0
1024.674,32956900.0
1024.724,32935700.0
1024.774,32914900.0
1024.824,32890600.0
1024.874,32867800.0
1024.924,32847300.0
1024.974,32823600.0
1025.006,32810200.0
1025.069,32774900.0
1025.196,32734500.0
1025.438,32540700.0
1025.546,32257400.0
1025.654,31990400.0
1025.681,32008300.0
1025.708,32028400.0
1025.715,32033500.0
1025.72,32037300.0
1025.722,32038800.0
1025.729,32044000.0
1025.736,32049200.0
1025.763,32069300.0
1025.79,32089500.0
1025.844,32193900.0
1025.898,32447600.0
1026.005,32928800.0
1026.056,33093300.0
1026.106,33224500.0
1026.156,33345400.0
1026.206,33448300.0
1026.256,33541600.0
1026.306,33637400.0
1026.356,33727300.0
1026.406,33833000.0
1026.438,33902100.0
1026.501,34026700.0
1026.628,34285100.0
1026.87,34788900.0
1027.355,35893500.0
1028.324,38065100.0
1028.6,38609900.0
1029.152,39561500.0
1030.257,41216800.0
1030.329,41315600.0
1030.474,41514000.0
1030.763,41906600.0
1031.341,42667700.0
1032.058,43570600.0
1033.493,45250000.0
1033.787,45596000.0
1034.376,46282900.0
1035.516,47630100.0
1037.246,49810900.0
1038.975,51948200.0
1040.704,54133100.0
1042.433,56410400.0
1044.162,58760300.0
1045.892,61179900.0
1047.621,63703100.0
1048.81,65494800.0
1050.0,67329900.0
1052.38,71101300.0
1055.0,75508300.0
1057.62,80132300.0
1060.0,84551500.0
1064.76,94091100.0
1065.0,94594100.0
1065.48,95607000.0
1066.441,97670100.0
1068.363,101939000.0
1070.0,105719000.0
1073.273,113553000.0
1075.0,117920000.0
1078.453,127176000.0
1080.0,131470000.0
1081.538,135893000.0
1083.077,140478000.0
1086.155,150144000.0
1086.538,151376000.0
1087.304,153840000.0
1088.835,158892000.0
1090.0,162850000.0
1092.33,171096000.0
1095.0,181102000.0
1097.67,191409000.0
1100.0,200868000.0
1104.661,221233000.0
1105.0,222717000.0
1105.679,225724000.0
1107.036,231881000.0
1109.751,244666000.0
1110.0,245874000.0
1110.498,248305000.0
1111.494,253229000.0
1113.486,263305000.0
1115.0,271102000.0
1118.027,286720000.0
1120.0,297033000.0
1123.945,317919000.0
1125.0,323478000.0
1127.109,334180000.0
1130.0,348558000.0
1131.154,354375000.0
1132.308,360082000.0
1134.616,371694000.0
1136.154,379460000.0
1139.23,395534000.0
1140.0,399541000.0
1141.539,407908000.0
1144.617,425377000.0
1145.0,427666000.0
1145.766,432058000.0
1147.297,441270000.0
1150.0,458075000.0
1152.703,475541000.0
1155.406,493548000.0
1158.109,512326000.0
1160.812,532062000.0
1163.516,552582000.0
1165.769,570855000.0
1170.276,611057000.0
1174.783,655775000.0
1179.29,705113000.0
1181.538,731573000.0
1185.628,782403000.0
1189.718,836761000.0
1191.767,865167000.0
1193.816,894147000.0
1195.866,923885000.0
1197.915,954615000.0
1199.964,986320000.0
1202.014,1019080000.0
1204.063,1052350000.0
1206.113,1085750000.0
1208.162,1118510000.0
1210.211,1149790000.0
1212.261,1179330000.0
1214.31,1212550000.0
1214.822,1222010000.0
1215.335,1231600000.0
1215.463,1233560000.0
1215.591,1235050000.0
1215.623,1235670000.0
1215.655,1236300000.0
1215.663,1236460000.0
1215.67,1236600000.0
1215.679,1236770000.0
1215.687,1236930000.0
1215.719,1237560000.0
1215.751,1238200000.0
1215.815,1240030000.0
1215.879,1242180000.0
1216.007,1245860000.0
1216.263,1252570000.0
1216.52,1259860000.0
1217.032,1274760000.0
1218.056,1305290000.0
1219.081,1333700000.0
1221.131,1384840000.0
1223.18,1434730000.0
1225.229,1486370000.0
1227.279,1535840000.0
1229.328,1586470000.0
1231.378,1639160000.0
1233.427,1693140000.0
1235.476,1748530000.0
1237.526,1805160000.0
1239.575,1862940000.0
1241.625,1922250000.0
1245.725,2046110000.0
1249.825,2177290000.0
1250.812,2209710000.0
1252.786,2276630000.0
1256.733,2415240000.0
1260.0,2536470000.0
1263.267,2664610000.0
1265.0,2734580000.0
1268.466,2877670000.0
1270.0,2943790000.0
1273.068,3079720000.0
1275.0,3167300000.0
1278.863,3352470000.0
1280.0,3408500000.0
1282.273,3522180000.0
1285.0,3660270000.0
1287.727,3803890000.0
1290.0,3927630000.0
1294.547,4188190000.0
1295.0,4215170000.0
1295.906,4269640000.0
1297.719,4379970000.0
1300.0,4521470000.0
1305.0,4841310000.0
1310.0,5180670000.0
1315.0,5541400000.0
1320.0,5924070000.0
1325.0,6330220000.0
1330.0,6761570000.0
1335.0,7218200000.0
1340.0,7699730000.0
1345.0,8207330000.0
1350.0,8743980000.0
1355.0,9312590000.0
1360.0,9910950000.0
1365.0,10542600000.0
1370.0,11210100000.0
1374.231,11801300000.0
1378.462,12418400000.0
1379.231,12533600000.0
1380.0,12649700000.0
1381.538,12884800000.0
1384.614,13366400000.0
1385.0,13427900000.0
1385.771,13551500000.0
1387.314,13801700000.0
1390.0,14246500000.0
1395.0,15107700000.0
1400.0,16013100000.0
1405.0,16965300000.0
1410.0,17967400000.0
1415.0,19019700000.0
1420.0,20122400000.0
1425.0,21279300000.0
1430.0,22493000000.0
1435.0,23762100000.0
1440.0,25086400000.0
1445.0,26470200000.0
1450.0,27917300000.0
1455.0,29429700000.0
1460.0,31011400000.0
1465.0,32664400000.0
1470.0,34399700000.0
1473.462,35650600000.0
1476.923,36942600000.0
1478.462,37530900000.0
1480.0,38127900000.0
1483.076,39349000000.0
1485.0,40131500000.0
1488.848,41739100000.0
1490.0,42230800000.0
1492.304,43227900000.0
1495.0,44415700000.0
1500.0,46676100000.0
1505.0,49020400000.0
1510.0,51472100000.0
1515.0,54049900000.0
1520.0,56747900000.0
1525.0,59524600000.0
1530.0,62332700000.0
1535.0,65175200000.0
1540.0,68102600000.0
1545.0,71168500000.0
1550.0,74404600000.0
1555.0,77812000000.0
1560.0,81366400000.0
1565.0,85029200000.0
1570.0,88772300000.0
1572.692,90820900000.0
1575.385,92897600000.0
1577.692,94704700000.0
1580.0,96542700000.0
1584.616,100326000000.0
1585.0,100649000000.0
1585.768,101296000000.0
1587.304,102606000000.0
1590.0,104953000000.0
1595.0,109484000000.0
1600.0,114263000000.0
1605.0,119309000000.0
1610.0,124643000000.0
1615.0,130284000000.0
1620.0,136260000000.0
1625.0,142613000000.0
1630.0,149336000000.0
1635.0,156428000000.0
1640.0,163880000000.0
1645.0,171701000000.0
1650.0,179874000000.0
1655.0,188390000000.0
1660.0,197276000000.0
1665.0,206551000000.0
1670.0,216251000000.0
1671.923,220078000000.0
1673.846,223994000000.0
1676.923,230451000000.0
1680.0,237165000000.0
1685.0,248593000000.0
1690.0,260987000000.0
1695.0,274955000000.0
1700.0,291133000000.0
1702.5,300412000000.0
1705.0,311442000000.0
1707.5,323336000000.0
1710.0,337163000000.0
1712.5,353063000000.0
1715.0,372216000000.0
1717.5,393806000000.0
1720.0,418942000000.0
1722.5,447429000000.0
1725.0,481853000000.0
1727.5,519990000000.0
1730.0,566042000000.0
1732.5,614458000000.0
1735.0,672207000000.0
1737.5,735435000000.0
1740.0,808802000000.0
1742.5,887795000000.0
1745.0,979760000000.0
1747.5,1074670000000.0
1750.0,1183100000000.0
1752.5,1297900000000.0
1755.0,1429420000000.0
1760.0,1707610000000.0
1761.154,1777020000000.0
1763.462,1917120000000.0
1765.77,2072600000000.0
1768.078,2221510000000.0
1772.308,2517960000000.0
1776.538,2830510000000.0
1780.767,3157690000000.0
1789.226,3817690000000.0
1806.145,5163920000000.0
1821.539,6356670000000.0
1836.933,7520120000000.0
1852.327,8680430000000.0
1867.721,9865000000000.0
1870.769,10105600000000.0
1876.865,10589300000000.0
1889.057,11584600000000.0
1901.249,12618700000000.0
1913.441,13693700000000.0
1920.0,14291700000000.0
1933.119,15526700000000.0
1946.237,16819200000000.0
1959.356,18164300000000.0
1969.231,19212700000000.0
1988.981,21399100000000.0
2008.731,23681800000000.0
2018.462,24857600000000.0
2037.924,27281200000000.0
2057.386,29855600000000.0
2067.692,31283700000000.0
2077.998,32761200000000.0
2088.303,34278300000000.0
2098.609,35847700000000.0
2108.915,37437800000000.0
2116.923,38706900000000.0
2132.94,41256400000000.0
2148.957,43828300000000.0
2164.974,46390200000000.0
2166.154,46572800000000.0
2168.513,46938900000000.0
2173.232,47677000000000.0
2182.67,49151700000000.0
2201.545,52005400000000.0
2215.385,54069400000000.0
2229.225,56169800000000.0
2243.066,58320500000000.0
2256.906,60553400000000.0
2264.615,61838500000000.0
2280.033,64488700000000.0
2295.451,67326600000000.0
2310.869,70375700000000.0
2313.846,70987400000000.0
2319.8,72219200000000.0
2331.708,74905200000000.0
2343.616,77720800000000.0
2355.525,80745500000000.0
2363.077,82729400000000.0
2378.181,86879300000000.0
2393.286,91141100000000.0
2408.39,95439200000000.0
2412.307,96550200000000.0
2420.14,98799400000000.0
2435.806,103055000000000.0
2451.472,107146000000000.0
2461.538,109725000000000.0
2471.604,112117000000000.0
2481.67,114512000000000.0
2491.737,116753000000000.0
2501.803,118991000000000.0
2510.769,120877000000000.0
2528.702,124574000000000.0
2546.634,128139000000000.0
2560.0,130739000000000.0
2573.366,133264000000000.0
2586.731,135767000000000.0
2600.097,138247000000000.0
2613.463,140692000000000.0
2626.829,143125000000000.0
2640.194,145544000000000.0
2653.56,147943000000000.0
2658.461,148822000000000.0
2668.263,150563000000000.0
2687.866,154065000000000.0
2707.47,157565000000000.0
2727.073,160980000000000.0
2746.677,164370000000000.0
2756.923,166137000000000.0
2767.169,167889000000000.0
2777.416,169638000000000.0
2787.662,171382000000000.0
2797.908,173122000000000.0
2808.155,174856000000000.0
2818.401,176585000000000.0
2828.647,178308000000000.0
2838.894,180026000000000.0
2849.14,181738000000000.0
2855.385,182778000000000.0
2867.875,184842000000000.0
2880.365,186895000000000.0
2892.854,188939000000000.0
2905.344,190972000000000.0
2917.834,192994000000000.0
2930.323,195005000000000.0
2942.813,197005000000000.0
2945.1,197370000000000.0
2949.674,198098000000000.0
2953.846,198762000000000.0
2962.19,200076000000000.0
2978.879,202688000000000.0
2995.567,205278000000000.0
3012.256,207844000000000.0
3028.944,210386000000000.0
3045.633,212903000000000.0
3052.308,213903000000000.0
3065.659,215883000000000.0
3079.01,217845000000000.0
3092.361,219791000000000.0
3105.712,221719000000000.0
3119.063,223630000000000.0
3132.415,225522000000000.0
3145.766,227397000000000.0
3150.769,228096000000000.0
3160.776,229483000000000.0
3170.783,230859000000000.0
3180.79,232226000000000.0
3187.7,233164000000000.0
3201.521,235024000000000.0
3215.342,236863000000000.0
3229.162,238682000000000.0
3242.983,240481000000000.0
3249.231,241286000000000.0
3261.727,242885000000000.0
3274.222,244466000000000.0
3286.718,246030000000000.0
3299.213,247577000000000.0
3311.709,249105000000000.0
3324.205,250617000000000.0
3336.7,252111000000000.0
3347.692,253410000000000.0
3358.684,254695000000000.0
3369.675,255967000000000.0
3380.667,257224000000000.0
3391.659,258467000000000.0
3402.65,259697000000000.0
3413.642,260913000000000.0
3424.634,262115000000000.0
3435.625,263303000000000.0
3446.154,264427000000000.0
3456.683,265536000000000.0
3467.211,266631000000000.0
3477.74,267714000000000.0
3488.268,268784000000000.0
3498.797,269841000000000.0
3509.325,270885000000000.0
3519.854,271916000000000.0
3530.383,272935000000000.0
3540.911,273940000000000.0
3544.615,274291000000000.0
3552.023,274984000000000.0
3566.838,276353000000000.0
3581.654,277696000000000.0
3595.868,278961000000000.0
3610.082,280200000000000.0
3624.297,281416000000000.0
3638.511,282610000000000.0
3646.5,283269000000000.0
3647.0,283311000000000.0
3647.12,283320000000000.0
3647.22,283169000000000.0
3647.42,283186000000000.0
3647.819,283219000000000.0
3648.0,283234000000000.0
3648.362,283264000000000.0
3649.085,283325000000000.0
3650.533,283446000000000.0
3653.427,283687000000000.0
3659.216,284167000000000.0
3665.005,284642000000000.0
3668.675,284941000000000.0
3676.014,285536000000000.0
3682.807,286080000000000.0
3686.832,286399000000000.0
3690.13,286662000000000.0
3691.554,286771000000000.0
3694.402,286998000000000.0
3696.486,287161000000000.0
3697.152,287208000000000.0
3698.484,287317000000000.0
3701.148,287525000000000.0
3702.843,287656000000000.0
3703.853,287726000000000.0
3705.0,287823000000000.0
3707.294,288000000000000.0
3709.2,288147000000000.0
3711.971,288343000000000.0
3715.556,288633000000000.0
3721.913,289083000000000.0
3721.938,289084000000000.0
3721.988,289090000000000.0
3722.038,289099000000000.0
3722.088,289109000000000.0
3722.138,289118000000000.0
3722.188,289125000000000.0
3722.238,289132000000000.0
3722.288,289138000000000.0
3722.338,289143000000000.0
3722.388,289147000000000.0
3722.438,289152000000000.0
3722.489,289156000000000.0
3722.539,289160000000000.0
3722.589,289164000000000.0
3722.639,289168000000000.0
3722.689,289172000000000.0
3722.739,289176000000000.0
3722.789,289180000000000.0
3722.839,289184000000000.0
3722.889,289188000000000.0
3722.939,289191000000000.0
3722.989,289195000000000.0
3723.039,289199000000000.0
3723.089,289203000000000.0
3723.139,289207000000000.0
3723.189,289210000000000.0
3723.239,289214000000000.0
3723.289,289218000000000.0
3723.339,289222000000000.0
3723.389,289226000000000.0
3723.439,289229000000000.0
3723.49,289233000000000.0
3723.54,289237000000000.0
3723.59,289241000000000.0
3723.64,289244000000000.0
3723.69,289248000000000.0
3723.74,289252000000000.0
3723.79,289256000000000.0
3723.84,289260000000000.0
3723.89,289263000000000.0
3723.94,289267000000000.0
3723.99,289271000000000.0
3724.04,289275000000000.0
3724.09,289278000000000.0
3724.14,289282000000000.0
3724.19,289286000000000.0
3724.24,289290000000000.0
3724.29,289294000000000.0
3724.34,289297000000000.0
3724.39,289301000000000.0
3724.44,289305000000000.0
3724.49,289309000000000.0
3724.541,289312000000000.0
3724.591,289316000000000.0
3724.641,289320000000000.0
3724.691,289323000000000.0
3724.741,289327000000000.0
3724.791,289331000000000.0
3724.841,289335000000000.0
3724.891,289339000000000.0
3724.941,289342000000000.0
3724.991,289346000000000.0
3725.041,289350000000000.0
3725.091,289354000000000.0
3725.141,289357000000000.0
3725.191,289361000000000.0
3725.241,289365000000000.0
3725.291,289369000000000.0
3725.341,289372000000000.0
3725.391,289376000000000.0
3725.441,289380000000000.0
3725.491,289383000000000.0
3725.542,289387000000000.0
3725.592,289391000000000.0
3725.642,289395000000000.0
3725.692,289399000000000.0
3725.742,289402000000000.0
3725.792,289406000000000.0
3725.842,289410000000000.0
3725.892,289414000000000.0
3725.942,289418000000000.0
3725.992,289421000000000.0
3726.042,289425000000000.0
3726.092,289429000000000.0
3726.142,289433000000000.0
3726.192,289436000000000.0
3726.242,289440000000000.0
3726.292,289444000000000.0
3726.342,289447000000000.0
3726.392,289451000000000.0
3726.442,289455000000000.0
3726.492,289459000000000.0
3726.542,289462000000000.0
3726.593,289466000000000.0
3726.643,289470000000000.0
3726.693,289474000000000.0
3726.743,289477000000000.0
3726.793,289481000000000.0
3726.843,289485000000000.0
3726.893,289489000000000.0
3726.943,289492000000000.0
3726.993,289496000000000.0
3727.043,289500000000000.0
3727.093,289504000000000.0
3727.143,289508000000000.0
3727.193,289511000000000.0
3727.243,289515000000000.0
3727.293,289519000000000.0
