Wavelength,Flux
900.0,25649800.0
903.442,28179000.0
904.998,29395200.0
906.554,30659000.0
908.11,31972100.0
909.667,33337000.0
910.703,34274300.0
911.74,35236400.0
911.84,35330500.0
912.0,35481500.0
912.31,35775700.0
912.779,36225100.0
913.717,37139100.0
914.335,37752800.0
915.329,38759000.0
915.824,39269300.0
915.892,39339900.0
916.028,39546500.0
916.3,39781400.0
916.429,39901100.0
916.686,40423700.0
916.944,40747300.0
917.181,40699400.0
917.3,40843400.0
917.418,41426100.0
917.448,41556400.0
917.507,41776900.0
917.626,42089200.0
917.745,42263600.0
917.863,42203900.0
918.101,41695200.0
918.129,41726400.0
918.186,41788800.0
918.3,42246000.0
918.357,42771800.0
918.413,43201900.0
918.527,43823600.0
918.641,44236800.0
918.869,44695000.0
919.004,44597000.0
919.072,44301200.0
919.14,43751300.0
919.275,42999200.0
919.313,43042000.0
919.351,43084900.0
919.401,43141300.0
919.501,43509000.0
919.551,44182400.0
919.601,44904500.0
919.701,46024000.0
919.801,46741200.0
919.901,47251200.0
920.101,47952300.0
920.301,48400100.0
920.501,48375900.0
920.56,48171800.0
920.619,47782900.0
920.678,47160800.0
920.737,46260300.0
920.796,45284500.0
920.855,44819700.0
920.914,44881500.0
920.963,44938400.0
921.06,45053400.0
921.157,46235500.0
921.254,48257500.0
921.351,49767400.0
921.448,50778000.0
921.545,51474700.0
921.642,51997700.0
921.836,52821500.0
922.117,53690800.0
922.398,54178900.0
922.506,54156400.0
922.614,53871600.0
922.723,53131700.0
922.809,51964400.0
922.895,50126700.0
922.992,47870500.0
923.041,47443400.0
923.089,47493500.0
923.114,47524300.0
923.138,47554000.0
923.144,47561300.0
923.15,47568700.0
923.156,47576200.0
923.162,47583500.0
923.187,47614400.0
923.211,47644100.0
923.261,47718900.0
923.308,48271300.0
923.358,49509900.0
923.405,50909200.0
923.499,53444900.0
923.593,55258500.0
923.687,56552300.0
923.794,57587100.0
923.901,58375400.0
924.114,59550700.0
924.183,59863800.0
924.321,60433000.0
924.436,60869600.0
924.666,61650000.0
924.688,61719500.0
924.738,61871000.0
924.838,62157500.0
924.939,62421100.0
925.141,62835800.0
925.189,62902300.0
925.285,62980300.0
925.476,62783800.0
925.579,62318000.0
925.682,61425400.0
925.733,60748500.0
925.785,59909600.0
925.836,58806000.0
925.888,57470700.0
925.939,55854500.0
925.97,54801100.0
926.032,52740200.0
926.067,51887500.0
926.117,51368100.0
926.165,51424300.0
926.189,51456100.0
926.214,51489200.0
926.22,51497200.0
926.226,51505200.0
926.232,51513100.0
926.238,51521100.0
926.263,51554300.0
926.287,51586100.0
926.337,51663100.0
926.385,52317600.0
926.435,53809200.0
926.482,55588300.0
926.532,57511200.0
926.632,60813000.0
926.682,62136600.0
926.732,63298800.0
926.832,65183600.0
926.873,65795300.0
926.955,66857900.0
927.119,68448400.0
927.263,69522000.0
927.55,71119300.0
927.837,72468300.0
927.875,72638400.0
927.951,72971200.0
928.102,73603400.0
928.404,74782700.0
928.487,75095600.0
928.653,75713800.0
928.985,76824200.0
929.097,77142200.0
929.32,77640800.0
929.513,77829900.0
929.706,77606200.0
929.899,76681800.0
930.092,74472900.0
930.098,74367300.0
930.148,73407000.0
930.248,70983700.0
930.298,69440500.0
930.348,67728600.0
930.448,63712500.0
930.491,61809900.0
930.577,58536700.0
930.589,58248000.0
930.639,57674700.0
930.687,57740300.0
930.711,57775600.0
930.736,57812500.0
930.742,57821200.0
930.748,57830100.0
930.754,57839000.0
930.76,57847800.0
930.785,57884600.0
930.809,57920000.0
930.859,58001400.0
930.907,58722900.0
930.957,60446100.0
931.005,62651200.0
931.055,65081900.0
931.155,69590300.0
931.255,73480800.0
931.355,76708200.0
931.398,77873700.0
931.484,79927300.0
931.57,81677600.0
931.657,83184200.0
931.79,85050600.0
931.923,86608600.0
932.19,89002300.0
932.457,90927400.0
932.724,92560300.0
933.033,94275300.0
933.651,97395500.0
934.276,100321000.0
935.514,105413000.0
935.823,106216000.0
936.133,106508000.0
936.288,106308000.0
936.443,105805000.0
936.597,104767000.0
936.752,102979000.0
936.753,102964000.0
936.803,102213000.0
936.903,100320000.0
937.003,97834300.0
937.103,94718300.0
937.148,93119800.0
937.238,89487800.0
937.328,85297100.0
937.419,80718700.0
937.544,73908100.0
937.593,71420800.0
937.642,69619800.0
937.691,68924800.0
937.74,69004800.0
937.766,69049600.0
937.791,69093000.0
937.797,69103300.0
937.803,69113700.0
937.809,69124200.0
937.815,69134500.0
937.84,69177900.0
937.865,69221100.0
937.915,69312800.0
937.964,70185300.0
938.014,72225300.0
938.062,74874900.0
938.112,77866700.0
938.212,83705700.0
938.412,94444800.0
938.458,96640500.0
938.55,100621000.0
938.642,104202000.0
938.734,107281000.0
938.853,110666000.0
938.972,113452000.0
939.091,115874000.0
939.329,119596000.0
939.566,122539000.0
939.804,124894000.0
940.28,128781000.0
940.434,129901000.0
940.742,131902000.0
941.359,135632000.0
942.015,139366000.0
942.894,144296000.0
943.773,149262000.0
944.625,153766000.0
945.478,158142000.0
946.279,161809000.0
947.079,164141000.0
947.479,164367000.0
947.879,162764000.0
948.08,160719000.0
948.28,157510000.0
948.48,152900000.0
948.68,146378000.0
948.88,137461000.0
949.08,126034000.0
949.28,112830000.0
949.48,98889900.0
949.53,95698000.0
949.58,93415700.0
949.63,92574900.0
949.68,92685500.0
949.705,92742100.0
949.73,92798300.0
949.737,92814200.0
949.743,92827800.0
949.749,92841400.0
949.755,92855000.0
949.781,92913800.0
949.806,92970500.0
949.856,93086300.0
949.906,94162400.0
949.956,96698300.0
950.006,100161000.0
950.056,103990000.0
950.156,111602000.0
950.356,126538000.0
950.406,130157000.0
950.506,136991000.0
950.706,149303000.0
950.806,154585000.0
950.906,159400000.0
951.005,163526000.0
951.105,167333000.0
951.305,173797000.0
951.504,179257000.0
951.704,183603000.0
951.903,187050000.0
952.302,192340000.0
952.407,193573000.0
952.617,196149000.0
953.037,200832000.0
953.877,208280000.0
954.008,209349000.0
954.271,211448000.0
954.796,215469000.0
955.609,221392000.0
957.211,232907000.0
958.812,244427000.0
960.413,256322000.0
960.776,259126000.0
961.14,261950000.0
961.376,263803000.0
961.611,265660000.0
962.081,269270000.0
963.021,276447000.0
963.251,278233000.0
963.71,281844000.0
964.629,289238000.0
964.89,291369000.0
965.412,295674000.0
966.456,304527000.0
966.53,305168000.0
966.678,306454000.0
966.975,309026000.0
967.567,314226000.0
968.169,319520000.0
969.372,330047000.0
969.809,333924000.0
970.683,341635000.0
971.448,347635000.0
971.858,347885000.0
972.268,346862000.0
972.318,346634000.0
972.37,346359000.0
972.473,345810000.0
972.499,345676000.0
972.524,345550000.0
972.531,345516000.0
972.537,345486000.0
972.543,345456000.0
972.55,345422000.0
972.575,345297000.0
972.601,345166000.0
972.653,344910000.0
972.703,345000000.0
972.803,345290000.0
972.806,345298000.0
972.856,345444000.0
972.956,345735000.0
973.156,346328000.0
973.216,346507000.0
973.336,347021000.0
973.576,350191000.0
973.626,350857000.0
973.726,352200000.0
973.926,354929000.0
974.326,361254000.0
975.126,374107000.0
975.265,376326000.0
975.544,380322000.0
976.101,388095000.0
976.905,398446000.0
978.512,419592000.0
978.544,420009000.0
978.608,420842000.0
978.735,422457000.0
978.989,425621000.0
979.498,432010000.0
980.184,440592000.0
981.556,457310000.0
981.823,460571000.0
982.357,467180000.0
983.424,480327000.0
983.463,480809000.0
983.54,481770000.0
983.694,483705000.0
984.003,487604000.0
984.62,495539000.0
985.102,501851000.0
986.065,514468000.0
986.742,523463000.0
988.095,542110000.0
988.381,546138000.0
988.953,554077000.0
990.021,569245000.0
991.66,593538000.0
993.3,618478000.0
996.58,671627000.0
996.65,672802000.0
996.79,675167000.0
997.07,679928000.0
997.63,689640000.0
998.75,709379000.0
1000.0,731599000.0
1001.912,767095000.0
1003.824,803288000.0
1005.553,837717000.0
1007.282,872498000.0
1009.011,908036000.0
1010.74,942889000.0
1012.469,978166000.0
1014.199,1012930000.0
1015.928,1042880000.0
1017.657,1065150000.0
1018.521,1070460000.0
1019.386,1069750000.0
1020.25,1061600000.0
1021.115,1044190000.0
1021.979,1014710000.0
1022.844,969543000.0
1023.276,943350000.0
1023.708,908939000.0
1024.141,859485000.0
1024.573,794222000.0
1024.624,784299000.0
1024.674,774548000.0
1024.724,764636000.0
1024.774,754110000.0
1024.824,743541000.0
1024.874,732862000.0
1024.924,721074000.0
1024.974,708635000.0
1025.006,700719000.0
1025.069,684598000.0
1025.196,648060000.0
1025.322,605724000.0
1025.438,563187000.0
1025.546,522934000.0
1025.6,510075000.0
1025.654,507187000.0
1025.681,507449000.0
1025.708,507731000.0
1025.715,507803000.0
1025.72,507855000.0
1025.722,507876000.0
1025.729,507949000.0
1025.736,508022000.0
1025.763,508303000.0
1025.79,508586000.0
1025.844,510648000.0
1025.871,514860000.0
1025.898,521749000.0
1025.952,540908000.0
1026.005,563146000.0
1026.056,583769000.0
1026.106,603559000.0
1026.156,622932000.0
1026.206,641846000.0
1026.256,659737000.0
1026.306,676957000.0
1026.356,693480000.0
1026.406,708415000.0
1026.438,717921000.0
1026.501,735414000.0
1026.628,769411000.0
1026.87,826716000.0
1026.991,853096000.0
1027.112,875088000.0
1027.355,918321000.0
1027.597,958496000.0
1027.839,991697000.0
1028.324,1049420000.0
1028.6,1079130000.0
1029.152,1134930000.0
1029.704,1185890000.0
1030.257,1233220000.0
1030.329,1239170000.0
1030.474,1251140000.0
1030.763,1275180000.0
1031.341,1324440000.0
1032.058,1381310000.0
1032.775,1430780000.0
1033.493,1475740000.0
1033.787,1493260000.0
1034.376,1524440000.0
1035.516,1580610000.0
1036.381,1630860000.0
1037.246,1685950000.0
1038.975,1783670000.0
1040.704,1867410000.0
1042.433,1950620000.0
1044.162,2033710000.0
1045.892,2118900000.0
1047.621,2207420000.0
1048.81,2270550000.0
1050.0,2334860000.0
1052.38,2462410000.0
1055.0,2612450000.0
1057.62,2764670000.0
1060.0,2915300000.0
1062.38,3088310000.0
1064.76,3271870000.0
1065.0,3290920000.0
1065.48,3329190000.0
1066.441,3405630000.0
1068.363,3562840000.0
1070.0,3688800000.0
1073.273,3953180000.0
1075.0,4102350000.0
1078.453,4427230000.0
1080.0,4600610000.0
1081.538,4789740000.0
1083.077,4979590000.0
1086.155,5334010000.0
1086.538,5379720000.0
1087.304,5472850000.0
1088.835,5667350000.0
1090.0,5825880000.0
1092.33,6146300000.0
1095.0,6513380000.0
1097.67,6915540000.0
1100.0,7291310000.0
1104.661,8016920000.0
1105.0,8073970000.0
1105.679,8189500000.0
1107.036,8431730000.0
1109.751,8906160000.0
1110.0,8947700000.0
1110.498,9031750000.0
1111.494,9199330000.0
1113.486,9520130000.0
1115.0,9773920000.0
1118.027,10251900000.0
1120.0,10506100000.0
1121.973,10710200000.0
1125.0,10930000000.0
1126.514,10968900000.0
1128.027,10956600000.0
1130.0,10903100000.0
1131.154,10866400000.0
1132.308,10806000000.0
1134.616,10697300000.0
1136.154,10621900000.0
1139.23,10529000000.0
1140.0,10508000000.0
1141.539,10504000000.0
1144.617,10562500000.0
1145.0,10578600000.0
1145.766,10598600000.0
1147.297,10667600000.0
1150.0,10814500000.0
1152.703,10985500000.0
1155.406,11157800000.0
1158.109,11325100000.0
1160.812,11497200000.0
1163.516,11652900000.0
1165.769,11778700000.0
1170.276,12033300000.0
1174.783,12339500000.0
1179.29,12760000000.0
1181.538,13005700000.0
1185.628,13545700000.0
1189.718,14154700000.0
1191.767,14440100000.0
1193.816,14694300000.0
1195.866,14899900000.0
1197.915,15066400000.0
1199.964,15228900000.0
1202.014,15350100000.0
1204.063,15413000000.0
1205.088,15377700000.0
1206.113,15321100000.0
1207.137,15188800000.0
1208.162,14999600000.0
1208.212,14991000000.0
1208.262,14982600000.0
1208.312,14974300000.0
1208.362,14966200000.0
1208.412,14958400000.0
1208.462,14950800000.0
1208.512,14942100000.0
1208.562,14929600000.0
1208.612,14917500000.0
1208.662,14905800000.0
1208.713,14894300000.0
1208.763,14883200000.0
1208.813,14872400000.0
1208.863,14862000000.0
1208.913,14851600000.0
1208.963,14841500000.0
1209.013,14829700000.0
1209.063,14812900000.0
1209.113,14796500000.0
1209.163,14780700000.0
1209.213,14765300000.0
1209.263,14751600000.0
1209.313,14739200000.0
1209.363,14727100000.0
1209.413,14715300000.0
1209.463,14703300000.0
1209.513,14690300000.0
1209.563,14674400000.0
1209.613,14659000000.0
1209.663,14644100000.0
1209.714,14629600000.0
1209.764,14615500000.0
1209.814,14601900000.0
1209.864,14588900000.0
1209.914,14578000000.0
1209.964,14567600000.0
1210.014,14556900000.0
1210.064,14544900000.0
1210.114,14533300000.0
1210.164,14521400000.0
1210.211,14510200000.0
1210.305,14488800000.0
1210.494,14449600000.0
1210.871,14327000000.0
1211.625,14080800000.0
1212.261,13895100000.0
1213.534,13582000000.0
1214.31,13483200000.0
1214.822,13460000000.0
1215.078,13422100000.0
1215.335,13207600000.0
1215.399,13066900000.0
1215.463,12894300000.0
1215.513,12769500000.0
1215.563,12714600000.0
1215.591,12715100000.0
1215.623,12720700000.0
1215.655,12726400000.0
1215.663,12727800000.0
1215.67,12729100000.0
1215.679,12730700000.0
1215.687,12732100000.0
1215.719,12737800000.0
1215.751,12743700000.0
1215.815,12800600000.0
1215.847,12883500000.0
1215.879,12992100000.0
1215.929,13171100000.0
1215.979,13342300000.0
1216.007,13423000000.0
1216.063,13576400000.0
1216.174,13817600000.0
1216.397,14180200000.0
1216.52,14367800000.0
1216.767,14669600000.0
1217.014,15010500000.0
1217.032,15031500000.0
1217.082,15090000000.0
1217.132,15150600000.0
1217.182,15214600000.0
1217.232,15280600000.0
1217.282,15348200000.0
1217.332,15417900000.0
1217.382,15490800000.0
1217.432,15569100000.0
1217.482,15652700000.0
1217.532,15718800000.0
1217.583,15776300000.0
1217.633,15835500000.0
1217.683,15900200000.0
1217.733,15967100000.0
1217.783,16036300000.0
1217.833,16108000000.0
1217.883,16182100000.0
1217.933,16256500000.0
1217.983,16336000000.0
1218.033,16407900000.0
1218.083,16473300000.0
1218.133,16540800000.0
1218.183,16610300000.0
1218.233,16680500000.0
1218.283,16755800000.0
1218.333,16836700000.0
1218.383,16920800000.0
1218.433,17010400000.0
1218.483,17104000000.0
1218.533,17173900000.0
1218.583,17231600000.0
1218.634,17290500000.0
1218.684,17350600000.0
1218.734,17415400000.0
1218.784,17482100000.0
1218.834,17550400000.0
1218.884,17620200000.0
1218.934,17692000000.0
1218.984,17765700000.0
1219.034,17834000000.0
1219.081,17896100000.0
1219.175,18031300000.0
1219.364,18322300000.0
1219.741,18867900000.0
1220.495,19770000000.0
1221.131,20499100000.0
1221.767,21109000000.0
1222.404,21478800000.0
1222.792,21825500000.0
1223.18,22204500000.0
1223.956,22904600000.0
1224.593,23375900000.0
1225.229,23766900000.0
1226.501,24366600000.0
1227.279,24670500000.0
1228.834,25317600000.0
1229.328,25529600000.0
1230.316,25982700000.0
1231.378,26457000000.0
1233.427,27377800000.0
1235.476,28279600000.0
1237.526,29168800000.0
1239.575,30029600000.0
1241.625,30898500000.0
1245.725,32727200000.0
1249.825,34668700000.0
1250.812,35123000000.0
1252.786,36115400000.0
1256.733,38144700000.0
1260.0,39994800000.0
1263.267,42053700000.0
1265.0,43139500000.0
1268.466,45237500000.0
1270.0,46249100000.0
1273.068,48294600000.0
1275.0,49563800000.0
1278.863,52410600000.0
1280.0,53241800000.0
1282.273,54882500000.0
1285.0,56746900000.0
1287.727,58713900000.0
1290.0,60413500000.0
1294.547,64074400000.0
1295.0,64460400000.0
1295.906,65239600000.0
1297.719,66795900000.0
1300.0,68745700000.0
1305.0,72956300000.0
1310.0,77379600000.0
1315.0,82050600000.0
1320.0,86965000000.0
1325.0,92153900000.0
1330.0,97653200000.0
1335.0,103427000000.0
1340.0,109412000000.0
1345.0,115623000000.0
1350.0,122139000000.0
1355.0,129031000000.0
1360.0,136169000000.0
1365.0,143646000000.0
1370.0,151512000000.0
1374.231,158379000000.0
1378.462,165476000000.0
1379.231,166797000000.0
1380.0,168127000000.0
1381.538,170817000000.0
1384.614,176307000000.0
1385.0,177005000000.0
1385.771,178409000000.0
1387.314,181242000000.0
1390.0,186257000000.0
1395.0,195905000000.0
1400.0,205970000000.0
1405.0,216484000000.0
1410.0,227494000000.0
1415.0,238957000000.0
1420.0,250830000000.0
1425.0,263187000000.0
1430.0,276050000000.0
1435.0,289327000000.0
1440.0,302964000000.0
1445.0,317039000000.0
1450.0,331616000000.0
1455.0,346696000000.0
1460.0,362339000000.0
1465.0,378552000000.0
1470.0,395586000000.0
1473.462,407860000000.0
1476.923,420531000000.0
1478.462,426302000000.0
1480.0,432166000000.0
1483.076,444172000000.0
1485.0,451875000000.0
1488.848,467684000000.0
1490.0,472503000000.0
1492.304,482232000000.0
1495.0,493711000000.0
1500.0,515181000000.0
1505.0,537070000000.0
1510.0,559942000000.0
1515.0,584216000000.0
1520.0,609613000000.0
1525.0,635029000000.0
1530.0,659319000000.0
1535.0,682444000000.0
1540.0,705571000000.0
1545.0,730046000000.0
1550.0,756566000000.0
1555.0,785072000000.0
1560.0,814874000000.0
1565.0,844945000000.0
1570.0,874526000000.0
1572.692,890236000000.0
1575.385,905885000000.0
1577.692,919379000000.0
1580.0,933057000000.0
1584.616,961306000000.0
1585.0,963740000000.0
1585.768,968625000000.0
1587.304,978553000000.0
1590.0,996528000000.0
1595.0,1032020000000.0
1600.0,1070620000000.0
1605.0,1112640000000.0
1610.0,1158310000000.0
1615.0,1207940000000.0
1620.0,1261890000000.0
1625.0,1320340000000.0
1630.0,1383750000000.0
1635.0,1452640000000.0
1640.0,1527790000000.0
1645.0,1610450000000.0
1650.0,1701680000000.0
1655.0,1802370000000.0
1660.0,1914960000000.0
1665.0,2041740000000.0
1670.0,2186850000000.0
1671.923,2247640000000.0
1673.846,2314670000000.0
1676.923,2435060000000.0
1680.0,2578480000000.0
1683.077,2741800000000.0
1685.0,2871690000000.0
1686.923,3011010000000.0
1688.461,3140140000000.0
1690.0,3294820000000.0
1691.539,3458150000000.0
1693.077,3639900000000.0
1693.846,3743960000000.0
1694.616,3861120000000.0
1695.0,3924400000000.0
1695.769,4052570000000.0
1697.306,4311990000000.0
1698.653,4580050000000.0
1700.0,4903510000000.0
1701.347,5244960000000.0
1702.694,5615830000000.0
1703.847,5983070000000.0
1705.0,6406990000000.0
1707.306,7322240000000.0
1708.458,7858640000000.0
1709.611,8473250000000.0
1710.0,8700790000000.0
1710.777,9157820000000.0
1712.332,10075300000000.0
1713.666,10994400000000.0
1715.0,12060400000000.0
1717.668,14297100000000.0
1718.834,15430400000000.0
1720.0,16718900000000.0
1722.332,19319300000000.0
1723.666,20988500000000.0
1725.0,22870800000000.0
1727.668,26655100000000.0
1728.834,28497100000000.0
1730.0,30516300000000.0
1732.332,34417300000000.0
1733.666,36823700000000.0
1735.0,39461400000000.0
1737.668,44556200000000.0
1740.0,49499800000000.0
1742.332,54296800000000.0
1745.0,60233400000000.0
1747.668,65971900000000.0
1750.0,71316100000000.0
1754.664,81643800000000.0
1761.154,95374500000000.0
1764.399,101751000000000.0
1767.644,107831000000000.0
1772.308,116079000000000.0
1776.972,123638000000000.0
1781.636,130540000000000.0
1786.3,136843000000000.0
1790.964,142586000000000.0
1800.292,152613000000000.0
1809.62,161092000000000.0
1818.947,168488000000000.0
1821.539,170403000000000.0
1826.722,174055000000000.0
1837.088,180851000000000.0
1847.454,187160000000000.0
1857.821,193145000000000.0
1868.187,198918000000000.0
1870.769,200337000000000.0
1875.933,203129000000000.0
1886.262,208645000000000.0
1896.591,214092000000000.0
1906.919,219493000000000.0
1917.248,224868000000000.0
1920.0,226297000000000.0
1925.504,229141000000000.0
1936.513,234817000000000.0
1947.522,240484000000000.0
1958.531,246143000000000.0
1969.231,251639000000000.0
1979.931,257105000000000.0
1990.631,262565000000000.0
2001.332,268015000000000.0
2012.032,273448000000000.0
2018.462,276724000000000.0
2031.323,283227000000000.0
2044.183,289740000000000.0
2057.044,296254000000000.0
2067.692,301651000000000.0
2078.34,307029000000000.0
2088.988,312401000000000.0
2099.636,317777000000000.0
2110.284,323131000000000.0
2116.923,326471000000000.0
2130.202,333085000000000.0
2143.481,339671000000000.0
2156.76,346206000000000.0
2166.154,350793000000000.0
2184.943,359840000000000.0
2203.732,368774000000000.0
2215.385,374269000000000.0
2227.038,379719000000000.0
2238.691,385149000000000.0
2250.344,390573000000000.0
2261.996,395981000000000.0
2264.615,397198000000000.0
2269.852,399616000000000.0
2280.327,404440000000000.0
2290.802,409272000000000.0
2301.276,414086000000000.0
2311.751,418922000000000.0
2313.846,419886000000000.0
2318.036,421803000000000.0
2326.417,425656000000000.0
2343.179,433354000000000.0
2359.941,441052000000000.0
2363.077,442491000000000.0
