Wavelength,Flux
900.0,986209.0
903.442,1096990.0
904.998,1150740.0
906.554,1206910.0
908.11,1265590.0
909.667,1326930.0
910.703,1369260.0
911.74,1412860.0
911.84,1417130.0
912.0,1423990.0
912.31,1437370.0
912.779,1457820.0
913.717,1499550.0
914.335,1527640.0
915.329,1573830.0
915.824,1597310.0
915.892,1600560.0
916.028,1607090.0
916.3,1620210.0
916.429,1626440.0
916.686,1638970.0
917.181,1663340.0
917.448,1676540.0
917.982,1703410.0
918.129,1710950.0
918.423,1725620.0
919.004,1755440.0
919.351,1774170.0
920.045,1810470.0
920.56,1838610.0
920.963,1860860.0
921.769,1909050.0
922.117,1930230.0
922.506,1954170.0
922.895,1972700.0
922.992,1974780.0
923.089,1981140.0
923.114,1982600.0
923.138,1984000.0
923.144,1984340.0
923.15,1984690.0
923.156,1985040.0
923.162,1985400.0
923.187,1986860.0
923.211,1988260.0
923.261,1991110.0
923.308,1993190.0
923.402,2003470.0
923.405,2003830.0
923.455,2009430.0
923.555,2019380.0
923.755,2036180.0
923.794,2039120.0
923.872,2044870.0
924.028,2056200.0
924.183,2067430.0
924.436,2085940.0
924.688,2104190.0
924.939,2122360.0
925.189,2140590.0
925.579,2166970.0
925.774,2175100.0
925.97,2168320.0
926.067,2161180.0
926.165,2167860.0
926.189,2169380.0
926.214,2170960.0
926.22,2171340.0
926.226,2171720.0
926.232,2172100.0
926.238,2172480.0
926.263,2174070.0
926.287,2175590.0
926.337,2178690.0
926.385,2181330.0
926.481,2202760.0
926.532,2215080.0
926.632,2235190.0
926.832,2262360.0
926.873,2266670.0
926.955,2274880.0
927.119,2290510.0
927.263,2303390.0
927.551,2328490.0
927.875,2356250.0
928.487,2409190.0
929.097,2461590.0
929.706,2511650.0
930.098,2535030.0
930.295,2530130.0
930.491,2487530.0
930.589,2464460.0
930.638,2468310.0
930.687,2471860.0
930.711,2473570.0
930.736,2475360.0
930.742,2475780.0
930.748,2476210.0
930.754,2476640.0
930.76,2477070.0
930.785,2478860.0
930.809,2480580.0
930.859,2484100.0
930.907,2487200.0
930.955,2502420.0
931.003,2525140.0
931.005,2526240.0
931.055,2551230.0
931.155,2591870.0
931.255,2621340.0
931.355,2641860.0
931.398,2649770.0
931.484,2663630.0
931.657,2686590.0
931.79,2702310.0
932.057,2731820.0
932.591,2786100.0
933.033,2829990.0
933.918,2917740.0
934.276,2953790.0
934.992,3027540.0
935.514,3079180.0
936.558,3176790.0
936.753,3190260.0
937.143,3198020.0
937.148,3197700.0
937.198,3192620.0
937.298,3173580.0
937.398,3139900.0
937.498,3086930.0
937.544,3057940.0
937.636,3016550.0
937.642,3016200.0
937.692,3020770.0
937.741,3025020.0
937.766,3027160.0
937.791,3029320.0
937.797,3029830.0
937.803,3030340.0
937.809,3030870.0
937.815,3031380.0
937.84,3033530.0
937.865,3035680.0
937.915,3039940.0
937.964,3043900.0
938.013,3066740.0
938.062,3103520.0
938.16,3182460.0
938.258,3244560.0
938.356,3290750.0
938.458,3326960.0
938.662,3372100.0
938.853,3405630.0
939.235,3460570.0
940.0,3551750.0
940.434,3599800.0
941.302,3695670.0
942.015,3775430.0
942.894,3875980.0
943.773,3977440.0
944.625,4077420.0
945.478,4179490.0
947.079,4376300.0
948.68,4528080.0
948.88,4526420.0
949.08,4503760.0
949.28,4424370.0
949.48,4268940.0
949.58,4213500.0
949.63,4220090.0
949.68,4225950.0
949.705,4228870.0
949.73,4231790.0
949.737,4232610.0
949.743,4233300.0
949.749,4234020.0
949.755,4234720.0
949.781,4237760.0
949.806,4240680.0
949.856,4246510.0
949.906,4251610.0
949.956,4281300.0
950.006,4331230.0
950.056,4388300.0
950.156,4494190.0
950.256,4578530.0
950.356,4644820.0
950.406,4672350.0
950.506,4716040.0
950.707,4779690.0
950.806,4807180.0
951.005,4855950.0
951.402,4938760.0
952.197,5065800.0
952.407,5097270.0
952.827,5160260.0
953.666,5287590.0
954.008,5340250.0
954.692,5447390.0
955.609,5593580.0
957.211,5857840.0
958.812,6134430.0
960.413,6427530.0
960.776,6496210.0
961.14,6565890.0
961.376,6611520.0
961.611,6657320.0
962.081,6749510.0
963.021,6934170.0
963.251,6980120.0
963.71,7073050.0
964.629,7263420.0
964.89,7318580.0
965.412,7430310.0
966.456,7659980.0
966.53,7676590.0
966.678,7709990.0
966.975,7777210.0
967.567,7914100.0
968.169,8055990.0
969.372,8337650.0
969.809,8440680.0
970.683,8650640.0
971.448,8837420.0
971.858,8933890.0
972.268,9025930.0
972.37,9048520.0
972.473,9071500.0
972.499,9077300.0
972.524,9082930.0
972.531,9084500.0
972.537,9085840.0
972.543,9087200.0
972.55,9088760.0
972.575,9094410.0
972.601,9100240.0
972.653,9111910.0
972.703,9123940.0
972.803,9148280.0
972.806,9149000.0
972.856,9161230.0
972.956,9185660.0
973.156,9234760.0
973.216,9249520.0
973.336,9279470.0
973.576,9345570.0
973.626,9359410.0
973.726,9387190.0
973.926,9443110.0
974.326,9558010.0
975.126,9791280.0
975.265,9833550.0
975.544,9919080.0
976.101,10093300.0
976.905,10328500.0
978.512,10816200.0
978.544,10826100.0
978.608,10845900.0
978.735,10885500.0
978.989,10963400.0
979.498,11121500.0
980.184,11338300.0
981.556,11786300.0
981.823,11873700.0
982.357,12051000.0
983.424,12414100.0
983.463,12427500.0
983.54,12454300.0
983.694,12508200.0
984.003,12617000.0
984.62,12836100.0
985.102,13007300.0
986.065,13357900.0
986.742,13610800.0
988.095,14128600.0
988.381,14239500.0
988.953,14464300.0
990.021,14895300.0
991.66,15576200.0
993.3,16288300.0
996.58,17798200.0
996.65,17832200.0
996.79,17900000.0
997.07,18036600.0
997.63,18310000.0
998.75,18863100.0
1000.0,19503900.0
1001.912,20516900.0
1003.824,21575500.0
1005.553,22571200.0
1007.282,23602500.0
1009.011,24683500.0
1010.74,25785200.0
1012.469,26943300.0
1014.199,28102400.0
1015.928,29274200.0
1017.657,30477500.0
1019.386,31584800.0
1021.115,32439400.0
1021.979,32664200.0
1022.844,32563500.0
1023.708,32141600.0
1024.573,31417100.0
1024.624,31372900.0
1024.674,31329200.0
1024.724,31289000.0
1024.774,31244900.0
1024.824,31208400.0
1024.874,31172600.0
1024.924,31132700.0
1024.974,31088500.0
1025.006,31055600.0
1025.069,30979900.0
1025.196,30745100.0
1025.317,30370400.0
1025.438,29764100.0
1025.546,29138000.0
1025.6,29026300.0
1025.654,29066600.0
1025.681,29085600.0
1025.708,29103800.0
1025.715,29108600.0
1025.72,29112000.0
1025.722,29113400.0
1025.729,29118100.0
1025.736,29122800.0
1025.763,29141100.0
1025.79,29159500.0
1025.844,29186700.0
1025.898,29311500.0
1025.952,29635900.0
1026.005,30047500.0
1026.056,30424100.0
1026.106,30748900.0
1026.156,31033400.0
1026.206,31278100.0
1026.256,31491000.0
1026.306,31686600.0
1026.356,31854900.0
1026.406,31993600.0
1026.438,32081900.0
1026.501,32241300.0
1026.628,32533000.0
1026.87,33099200.0
1027.355,34275500.0
1028.324,36511800.0
1028.6,37111500.0
1029.152,38213000.0
1030.257,40084900.0
1030.329,40197000.0
1030.474,40419400.0
1030.763,40858300.0
1031.341,41747800.0
1032.058,42786500.0
1033.493,44635100.0
1033.787,45004600.0
1034.376,45713300.0
1035.516,47084500.0
1037.246,49342400.0
1038.975,51590600.0
1040.704,53846400.0
1042.433,56199800.0
1044.162,58628200.0
1045.892,61091300.0
1047.621,63667800.0
1048.81,65532700.0
1050.0,67443900.0
1052.38,71303200.0
1055.0,75885600.0
1057.62,80713900.0
1060.0,85305600.0
1064.76,95418800.0
1065.0,95948000.0
1065.48,97012400.0
1066.441,99188300.0
1068.363,103745000.0
1070.0,107899000.0
1073.273,116156000.0
1075.0,120836000.0
1078.453,130974000.0
1080.0,135573000.0
1081.538,140365000.0
1083.077,145389000.0
1086.155,156233000.0
1086.538,157544000.0
1087.304,160200000.0
1088.835,165683000.0
1090.0,170028000.0
1092.33,179206000.0
1095.0,190490000.0
1097.67,201306000.0
1100.0,211492000.0
1104.661,233839000.0
1105.0,235449000.0
1105.679,238571000.0
1107.036,244904000.0
1109.751,258130000.0
1110.0,259339000.0
1110.498,261796000.0
1111.494,266643000.0
1113.486,276656000.0
1115.0,283606000.0
1118.027,297103000.0
1120.0,305773000.0
1123.945,321364000.0
1125.0,325131000.0
1127.109,332192000.0
1130.0,342339000.0
1131.154,346823000.0
1132.308,351275000.0
1134.616,361018000.0
1136.154,367888000.0
1139.23,382748000.0
1140.0,386535000.0
1141.539,394554000.0
1144.617,411485000.0
1145.0,413716000.0
1145.766,418010000.0
1147.297,427131000.0
1150.0,443853000.0
1152.703,461241000.0
1155.406,478966000.0
1158.109,497052000.0
1160.812,515870000.0
1163.516,535422000.0
1165.769,552626000.0
1170.276,589839000.0
1174.783,631128000.0
1179.29,677113000.0
1181.538,701868000.0
1185.628,749715000.0
1189.718,801192000.0
1191.767,828014000.0
1193.816,855200000.0
1195.866,882621000.0
1197.915,910371000.0
1199.964,938476000.0
1202.014,966600000.0
1204.063,994425000.0
1206.113,1020740000.0
1208.162,1043830000.0
1210.211,1063150000.0
1212.261,1084020000.0
1214.31,1115950000.0
1214.822,1124980000.0
1215.335,1134220000.0
1215.463,1136550000.0
1215.591,1139180000.0
1215.623,1139770000.0
1215.655,1140350000.0
1215.663,1140490000.0
1215.67,1140620000.0
1215.679,1140780000.0
1215.687,1140930000.0
1215.719,1141510000.0
1215.751,1142090000.0
1215.815,1143060000.0
1215.879,1144080000.0
1216.007,1146620000.0
1216.263,1152020000.0
1216.52,1158250000.0
1217.032,1172860000.0
1218.056,1210780000.0
1219.08,1250780000.0
1219.081,1250830000.0
1219.131,1252780000.0
1219.181,1254740000.0
1219.231,1256700000.0
1219.281,1258670000.0
1219.331,1260650000.0
1219.381,1262490000.0
1219.431,1264540000.0
1219.481,1266710000.0
1219.531,1268600000.0
1219.582,1270330000.0
1219.632,1272060000.0
1219.682,1273810000.0
1219.732,1275560000.0
1219.782,1277320000.0
1219.832,1279110000.0
1219.882,1280960000.0
1219.932,1282850000.0
1219.982,1284760000.0
1220.032,1286400000.0
1220.082,1287910000.0
1220.132,1289400000.0
1220.182,1290890000.0
1220.232,1292390000.0
1220.282,1293890000.0
1220.332,1295400000.0
1220.382,1296930000.0
1220.432,1298500000.0
1220.482,1300080000.0
1220.532,1301630000.0
1220.583,1303170000.0
1220.633,1304720000.0
1220.683,1306280000.0
1220.733,1307830000.0
1220.783,1309380000.0
1220.833,1310940000.0
1220.883,1312530000.0
1220.933,1314100000.0
1220.983,1315690000.0
1221.033,1317230000.0
1221.083,1318760000.0
1221.131,1320230000.0
1221.227,1323180000.0
1221.419,1329120000.0
1221.803,1338810000.0
1222.57,1357430000.0
1223.18,1374350000.0
1224.4,1406650000.0
1225.229,1427640000.0
1226.887,1467060000.0
1227.279,1476230000.0
1228.062,1494850000.0
1229.328,1525760000.0
1231.378,1577400000.0
1233.427,1630370000.0
1235.476,1684460000.0
1237.526,1739640000.0
1239.575,1795790000.0
1241.625,1853430000.0
1245.725,1973990000.0
1249.825,2101630000.0
1250.812,2133030000.0
1252.786,2198170000.0
1256.733,2333040000.0
1260.0,2451490000.0
1263.267,2577400000.0
1265.0,2646090000.0
1268.466,2785820000.0
1270.0,2850580000.0
1273.068,2983770000.0
1275.0,3069440000.0
1278.863,3251360000.0
1280.0,3306080000.0
1282.273,3416940000.0
1285.0,3551280000.0
1287.727,3691180000.0
1290.0,3811880000.0
1294.547,4066490000.0
1295.0,4092880000.0
1295.906,4146130000.0
1297.719,4253900000.0
1300.0,4391960000.0
1305.0,4703530000.0
1310.0,5034260000.0
1315.0,5385850000.0
1320.0,5758870000.0
1325.0,6154880000.0
1330.0,6575550000.0
1335.0,7021040000.0
1340.0,7490710000.0
1345.0,7985760000.0
1350.0,8509180000.0
1355.0,9063930000.0
1360.0,9647640000.0
1365.0,10263900000.0
1370.0,10915500000.0
1374.231,11492800000.0
1378.462,12095300000.0
1379.231,12207800000.0
1380.0,12321200000.0
1381.538,12550800000.0
1384.614,13021200000.0
1385.0,13081200000.0
1385.771,13201900000.0
1387.314,13446300000.0
1390.0,13880600000.0
1395.0,14721700000.0
1400.0,15606200000.0
1405.0,16536600000.0
1410.0,17516000000.0
1415.0,18544400000.0
1420.0,19622200000.0
1425.0,20753000000.0
1430.0,21939300000.0
1435.0,23179600000.0
1440.0,24474000000.0
1445.0,25826500000.0
1450.0,27241000000.0
1455.0,28719500000.0
1460.0,30265800000.0
1465.0,31882000000.0
1470.0,33578800000.0
1473.462,34802500000.0
1476.923,36066700000.0
1478.462,36642500000.0
1480.0,37226700000.0
1483.076,38422100000.0
1485.0,39188200000.0
1488.848,40761800000.0
1490.0,41243100000.0
1492.304,42218700000.0
1495.0,43381000000.0
1500.0,45592900000.0
1505.0,47886800000.0
1510.0,50285900000.0
1515.0,52808300000.0
1520.0,55446300000.0
1525.0,58161500000.0
1530.0,60912800000.0
1535.0,63699100000.0
1540.0,66565300000.0
1545.0,69565800000.0
1550.0,72732500000.0
1555.0,76068400000.0
1560.0,79549200000.0
1565.0,83135600000.0
1570.0,86798100000.0
1572.692,88801900000.0
1575.385,90834800000.0
1577.692,92603100000.0
1580.0,94401200000.0
1584.616,98100900000.0
1585.0,98416200000.0
1585.768,99049700000.0
1587.304,100331000000.0
1590.0,102628000000.0
1595.0,107065000000.0
1600.0,111751000000.0
1605.0,116704000000.0
1610.0,121938000000.0
1615.0,127482000000.0
1620.0,133344000000.0
1625.0,139529000000.0
1630.0,146046000000.0
1635.0,152889000000.0
1640.0,160087000000.0
1645.0,167696000000.0
1650.0,175683000000.0
1655.0,184046000000.0
1660.0,192826000000.0
1665.0,202044000000.0
1670.0,211738000000.0
1671.923,215584000000.0
1673.846,219542000000.0
1676.923,226095000000.0
1680.0,232954000000.0
1685.0,244833000000.0
1690.0,258272000000.0
1695.0,274116000000.0
1697.5,283296000000.0
1700.0,293965000000.0
1702.5,305828000000.0
1705.0,320129000000.0
1707.5,336019000000.0
1710.0,356028000000.0
1712.5,378262000000.0
1715.0,406059000000.0
1717.5,436844000000.0
1720.0,475537000000.0
1722.5,518798000000.0
1725.0,571957000000.0
1726.25,600809000000.0
1727.5,630803000000.0
1728.75,664456000000.0
1730.0,702355000000.0
1732.5,780780000000.0
1733.75,826255000000.0
1735.0,877528000000.0
1737.5,981917000000.0
1738.75,1041350000000.0
1740.0,1108400000000.0
1742.5,1243940000000.0
1743.75,1320570000000.0
1745.0,1406180000000.0
1747.5,1578580000000.0
1748.75,1675780000000.0
1750.0,1784180000000.0
1752.5,2003130000000.0
1755.0,2259270000000.0
1757.5,2521960000000.0
1759.327,2735820000000.0
1761.154,2963000000000.0
1764.808,3440300000000.0
1768.462,3953050000000.0
1770.289,4241620000000.0
1772.116,4512850000000.0
1772.308,4542120000000.0
1772.808,4619750000000.0
1773.808,4780920000000.0
1775.808,5119120000000.0
1779.808,5783060000000.0
1787.808,7157930000000.0
1795.808,8564040000000.0
1803.808,9905370000000.0
1811.808,11196300000000.0
1821.539,12670100000000.0
1831.27,14046100000000.0
1841.001,15345600000000.0
1860.463,17797100000000.0
1870.769,19054000000000.0
1881.075,20299600000000.0
1891.382,21546300000000.0
1901.688,22800700000000.0
1911.994,24067600000000.0
1920.0,25064100000000.0
1936.012,27085700000000.0
1952.023,29156600000000.0
1968.035,31276700000000.0
1969.231,31437300000000.0
1971.623,31758000000000.0
1976.406,32402800000000.0
1985.972,33705600000000.0
2005.105,36348500000000.0
2018.462,38236800000000.0
2031.819,40146900000000.0
2045.176,42104200000000.0
2058.533,44107300000000.0
2067.692,45507800000000.0
2086.009,48370100000000.0
2104.327,51312500000000.0
2116.923,53370400000000.0
2129.52,55431800000000.0
2142.116,57515400000000.0
2154.712,59581900000000.0
2166.154,61456600000000.0
2177.596,63315600000000.0
2189.037,65148500000000.0
2200.479,66988400000000.0
2211.921,68810700000000.0
2215.385,69367000000000.0
2222.314,70480400000000.0
2236.171,72727500000000.0
2250.029,75021500000000.0
2263.886,77362300000000.0
2264.615,77487700000000.0
2266.073,77737900000000.0
2268.989,78239300000000.0
2274.821,79246300000000.0
2286.485,81300600000000.0
2298.149,83400600000000.0
2309.813,85580000000000.0
2313.846,86344400000000.0
2321.911,87886600000000.0
2338.042,91107100000000.0
2354.173,94468600000000.0
2363.077,96365000000000.0
2380.885,100237000000000.0
2398.692,104147000000000.0
2412.307,107109000000000.0
2425.922,110037000000000.0
2439.536,112924000000000.0
2453.151,115719000000000.0
2461.538,117437000000000.0
2478.312,120758000000000.0
2495.086,124001000000000.0
2510.769,126980000000000.0
2526.452,129906000000000.0
2542.135,132799000000000.0
2557.818,135659000000000.0
2560.0,136057000000000.0
2564.363,136842000000000.0
2573.09,138412000000000.0
2590.543,141539000000000.0
2607.996,144650000000000.0
2625.449,147747000000000.0
2642.902,150832000000000.0
2658.461,153572000000000.0
2674.02,156283000000000.0
2689.578,159000000000000.0
2705.137,161709000000000.0
2720.695,164399000000000.0
2736.254,167065000000000.0
2751.812,169722000000000.0
2756.923,170593000000000.0
2767.144,172319000000000.0
2777.365,174039000000000.0
2787.587,175755000000000.0
2797.808,177465000000000.0
2808.029,179169000000000.0
2818.25,180868000000000.0
2828.471,182560000000000.0
2838.693,184246000000000.0
2848.914,185926000000000.0
2855.385,186987000000000.0
2868.327,189085000000000.0
2881.27,191172000000000.0
2894.212,193248000000000.0
2907.155,195312000000000.0
2920.097,197363000000000.0
2933.039,199401000000000.0
2945.1,201289000000000.0
2953.846,202651000000000.0
2971.338,205335000000000.0
2988.829,207993000000000.0
3006.321,210624000000000.0
3023.813,213228000000000.0
3041.304,215805000000000.0
3052.308,217411000000000.0
3063.312,218997000000000.0
3074.315,220571000000000.0
3085.319,222133000000000.0
3096.323,223683000000000.0
3107.326,225221000000000.0
3118.33,226747000000000.0
3129.334,228260000000000.0
3140.337,229761000000000.0
3150.769,231173000000000.0
3161.201,232571000000000.0
3171.632,233957000000000.0
3182.064,235332000000000.0
3187.7,236070000000000.0
3198.972,237536000000000.0
3210.244,238988000000000.0
3221.516,240426000000000.0
3232.788,241850000000000.0
3244.06,243261000000000.0
3249.231,243903000000000.0
3259.573,245177000000000.0
3269.916,246439000000000.0
3280.258,247690000000000.0
3290.6,248928000000000.0
3300.942,250154000000000.0
3311.285,251368000000000.0
3321.627,252570000000000.0
3331.969,253760000000000.0
3342.312,254938000000000.0
3347.692,255546000000000.0
3358.453,256750000000000.0
3369.213,257942000000000.0
3379.974,259121000000000.0
3390.735,260285000000000.0
3401.496,261437000000000.0
3412.256,262576000000000.0
3423.017,263701000000000.0
3433.778,264813000000000.0
3444.539,265911000000000.0
3446.154,266075000000000.0
3449.385,266400000000000.0
3455.847,267047000000000.0
3468.771,268326000000000.0
3481.695,269587000000000.0
3494.618,270827000000000.0
3507.542,272048000000000.0
3520.466,273251000000000.0
3533.39,274433000000000.0
3544.615,275445000000000.0
3555.84,276438000000000.0
3567.065,277415000000000.0
3578.29,278379000000000.0
3589.515,279328000000000.0
3595.868,279858000000000.0
3608.573,280904000000000.0
3621.278,281930000000000.0
3633.983,282938000000000.0
3646.5,283913000000000.0
3647.0,283952000000000.0
3647.12,283961000000000.0
3647.22,284016000000000.0
3647.42,284032000000000.0
3647.819,284063000000000.0
3648.0,284078000000000.0
3648.362,284106000000000.0
3649.085,284164000000000.0
3650.533,284279000000000.0
3653.427,284508000000000.0
3659.216,284964000000000.0
3665.005,285416000000000.0
3668.675,285700000000000.0
3676.014,286265000000000.0
3682.807,286782000000000.0
3686.832,287081000000000.0
3690.13,287334000000000.0
3691.554,287431000000000.0
3694.402,287653000000000.0
3696.486,287808000000000.0
3697.152,287841000000000.0
3698.484,287956000000000.0
3701.148,288153000000000.0
3702.843,288278000000000.0
3703.853,288322000000000.0
3705.0,288436000000000.0
3707.294,288604000000000.0
3709.2,288743000000000.0
3711.971,288888000000000.0
3715.556,289204000000000.0
3721.913,289552000000000.0
3721.938,289552000000000.0
3721.988,289563000000000.0
3722.038,289585000000000.0
3722.088,289609000000000.0
3722.138,289630000000000.0
3722.188,289647000000000.0
3722.238,289660000000000.0
3722.288,289671000000000.0
3722.338,289679000000000.0
3722.388,289685000000000.0
3722.438,289691000000000.0
3722.489,289696000000000.0
3722.539,289701000000000.0
3722.589,289706000000000.0
3722.639,289710000000000.0
3722.689,289714000000000.0
3722.739,289718000000000.0
3722.789,289722000000000.0
3722.839,289726000000000.0
3722.889,289729000000000.0
3722.939,289733000000000.0
3722.989,289737000000000.0
3723.039,289741000000000.0
3723.089,289744000000000.0
3723.139,289748000000000.0
3723.189,289751000000000.0
3723.239,289755000000000.0
3723.289,289759000000000.0
3723.339,289763000000000.0
3723.389,289766000000000.0
3723.439,289770000000000.0
3723.49,289773000000000.0
3723.54,289777000000000.0
3723.59,289780000000000.0
3723.64,289784000000000.0
3723.69,289788000000000.0
3723.74,289791000000000.0
3723.79,289795000000000.0
3723.84,289798000000000.0
3723.89,289802000000000.0
3723.94,289805000000000.0
3723.99,289809000000000.0
3724.04,289813000000000.0
3724.09,289816000000000.0
3724.14,289820000000000.0
