Wavelength,Flux
900.0,35239600.0
903.442,38667600.0
904.998,40314500.0
906.554,42025000.0
908.11,43801100.0
909.667,45646400.0
910.703,46913000.0
911.74,48212800.0
911.84,48339900.0
912.0,48543800.0
912.31,48941100.0
912.779,49547800.0
913.717,50781700.0
914.335,51616700.0
915.329,52967500.0
915.824,53655700.0
915.892,53750900.0
916.028,54407400.0
916.164,54922100.0
916.297,54420600.0
916.429,54507800.0
916.495,54601800.0
916.561,54820800.0
916.628,55649300.0
916.694,56387900.0
916.76,56910200.0
916.826,57162600.0
916.892,57129600.0
916.958,56672100.0
917.025,55811000.0
917.091,55454000.0
917.157,55549300.0
917.181,55584100.0
917.231,55656300.0
917.331,56227400.0
917.381,57319900.0
917.431,58384700.0
917.448,58679100.0
917.498,59477100.0
917.598,60487900.0
917.698,60940400.0
917.748,60920300.0
917.798,60671400.0
917.848,60148800.0
917.898,59238900.0
917.998,56989000.0
918.048,56848500.0
918.098,56922200.0
918.129,56968300.0
918.191,57060500.0
918.223,57108200.0
918.254,57297800.0
918.285,57935100.0
918.316,58942100.0
918.379,61081000.0
918.441,62890600.0
918.503,64177900.0
918.566,65182500.0
918.628,65922500.0
918.753,66814800.0
918.815,66988100.0
918.878,66934900.0
918.94,66561600.0
919.002,65716400.0
919.004,65684600.0
919.054,64563400.0
919.104,62925500.0
919.154,60975000.0
919.204,59171000.0
919.254,58654300.0
919.302,58725000.0
919.351,58798700.0
919.448,58949400.0
919.497,59601000.0
919.545,61635700.0
919.594,64045800.0
919.642,66291700.0
919.691,68241500.0
919.739,69814800.0
919.788,71114000.0
919.836,72159100.0
919.933,73725300.0
920.03,74824100.0
920.127,75640900.0
920.224,76144800.0
920.321,76278400.0
920.419,75871400.0
920.516,74651400.0
920.56,73660500.0
920.61,72087900.0
920.66,69973800.0
920.71,67335000.0
920.76,64435000.0
920.81,61965200.0
920.86,61141000.0
920.91,61211000.0
920.96,61289900.0
920.963,61294800.0
921.013,61373700.0
921.063,61457100.0
921.113,62356200.0
921.163,65038300.0
921.213,68374000.0
921.313,74551100.0
921.363,76941200.0
921.413,78961800.0
921.463,80651400.0
921.513,82053500.0
921.613,84218300.0
921.713,85898500.0
921.813,87209800.0
922.013,89113000.0
922.117,89772800.0
922.325,90280400.0
922.416,89989000.0
922.506,89170800.0
922.596,87587600.0
922.641,86410400.0
922.687,84936900.0
922.737,82810300.0
922.787,80118300.0
922.837,76922800.0
922.887,73158000.0
922.895,72486800.0
922.945,68707300.0
922.992,65779100.0
923.042,64675000.0
923.089,64733700.0
923.114,64775200.0
923.138,64815000.0
923.144,64824900.0
923.15,64835000.0
923.156,64844900.0
923.162,64854800.0
923.187,64896400.0
923.211,64936200.0
923.261,65055900.0
923.308,66321600.0
923.358,69718400.0
923.405,73651700.0
923.455,77986800.0
923.505,81891400.0
923.555,85430000.0
923.605,88449800.0
923.655,91083100.0
923.705,93375300.0
923.755,95321500.0
923.794,96664700.0
923.872,98938700.0
923.95,100795000.0
924.028,102378000.0
924.183,104917000.0
924.338,106923000.0
924.436,108010000.0
924.633,109824000.0
924.688,110259000.0
924.798,111047000.0
924.939,111792000.0
925.189,112053000.0
925.314,111395000.0
925.439,109818000.0
925.509,108330000.0
925.579,106273000.0
925.649,103547000.0
925.719,99968300.0
925.789,95349600.0
925.859,89815000.0
925.914,84754900.0
925.97,79262200.0
926.018,74737300.0
926.067,71207200.0
926.116,69959400.0
926.164,70017700.0
926.189,70062100.0
926.214,70106500.0
926.22,70117200.0
926.226,70128000.0
926.232,70138600.0
926.238,70149300.0
926.263,70193900.0
926.287,70236800.0
926.337,70357600.0
926.385,71789600.0
926.435,75684900.0
926.482,80387800.0
926.532,85752700.0
926.632,95649300.0
926.682,100094000.0
926.732,104106000.0
926.782,107665000.0
926.832,110863000.0
926.873,113273000.0
926.955,117381000.0
927.037,120992000.0
927.119,124123000.0
927.202,126888000.0
927.263,128699000.0
927.386,131790000.0
927.631,136848000.0
927.875,140768000.0
928.119,144096000.0
928.487,148317000.0
928.855,151414000.0
929.097,152587000.0
929.339,152473000.0
929.459,151614000.0
929.58,150022000.0
929.706,147299000.0
929.832,143255000.0
929.895,140552000.0
929.958,137409000.0
930.021,133658000.0
930.084,129470000.0
930.098,128455000.0
930.148,124625000.0
930.248,115818000.0
930.298,110846000.0
930.348,105479000.0
930.448,94075900.0
930.491,88955000.0
930.534,84279300.0
930.577,80480200.0
930.589,79719500.0
930.639,78422300.0
930.687,78501300.0
930.711,78548700.0
930.736,78598200.0
930.742,78609900.0
930.748,78621800.0
930.754,78633800.0
930.76,78645700.0
930.785,78695000.0
930.809,78742600.0
930.859,78864200.0
930.907,80359200.0
930.957,84674400.0
931.005,90121800.0
931.055,96387300.0
931.105,102558000.0
931.205,114407000.0
931.302,124872000.0
931.398,134233000.0
931.495,142771000.0
931.591,150423000.0
931.688,157146000.0
931.784,162966000.0
931.79,163304000.0
931.84,166047000.0
931.94,170937000.0
932.14,179130000.0
932.34,185611000.0
932.54,191077000.0
932.74,195741000.0
932.94,199846000.0
933.033,201625000.0
933.219,204942000.0
933.591,210900000.0
934.276,220387000.0
934.961,228199000.0
935.237,230234000.0
935.514,231241000.0
935.791,230544000.0
936.067,227552000.0
936.205,224743000.0
936.344,220615000.0
936.482,215045000.0
936.62,207423000.0
936.753,198197000.0
936.819,192644000.0
936.886,186556000.0
936.952,179860000.0
937.019,172719000.0
937.085,165046000.0
937.148,157606000.0
937.274,142008000.0
937.4,125492000.0
937.526,108139000.0
937.544,105736000.0
937.594,99523300.0
937.642,95016500.0
937.692,93505200.0
937.741,93601900.0
937.766,93659600.0
937.791,93717500.0
937.797,93731500.0
937.803,93745400.0
937.809,93759300.0
937.815,93773300.0
937.84,93831300.0
937.865,93889200.0
937.915,94026600.0
937.964,95779100.0
938.014,100785000.0
938.062,107100000.0
938.112,114421000.0
938.162,121689000.0
938.262,136022000.0
938.458,162995000.0
938.654,188814000.0
938.752,200798000.0
938.85,211834000.0
938.853,212142000.0
938.903,217291000.0
939.003,227020000.0
939.103,235699000.0
939.203,243571000.0
939.303,250662000.0
939.503,262768000.0
939.703,272713000.0
939.903,281286000.0
940.103,288571000.0
940.303,294808000.0
940.434,298573000.0
940.696,305105000.0
941.22,316373000.0
941.744,326506000.0
942.015,331379000.0
942.556,340797000.0
942.894,346516000.0
943.57,357430000.0
943.773,360288000.0
944.18,365412000.0
944.625,370690000.0
945.478,378642000.0
945.905,380939000.0
946.331,381880000.0
946.705,381362000.0
947.079,377904000.0
947.266,374344000.0
947.453,369034000.0
947.64,361825000.0
947.827,352347000.0
948.014,340432000.0
948.201,325401000.0
948.295,316696000.0
948.388,306932000.0
948.482,296222000.0
948.575,284412000.0
948.669,272033000.0
948.68,270452000.0
948.73,263229000.0
948.83,248134000.0
949.03,216116000.0
949.08,208107000.0
949.18,191833000.0
949.38,158002000.0
949.48,140520000.0
949.53,132710000.0
949.58,126914000.0
949.63,125104000.0
949.68,125240000.0
949.705,125315000.0
949.73,125390000.0
949.737,125412000.0
949.743,125430000.0
949.749,125448000.0
949.755,125466000.0
949.781,125544000.0
949.806,125620000.0
949.856,125786000.0
949.906,127917000.0
949.956,134081000.0
950.006,142299000.0
950.056,151580000.0
950.106,160809000.0
950.206,179141000.0
950.406,214693000.0
950.456,223471000.0
950.556,241455000.0
950.756,276033000.0
950.806,284306000.0
950.906,299808000.0
951.106,328756000.0
951.206,341712000.0
951.307,353580000.0
951.507,375142000.0
951.707,393526000.0
951.907,409601000.0
952.107,423399000.0
952.307,435204000.0
952.407,440467000.0
952.606,450003000.0
953.004,466306000.0
953.402,480661000.0
954.008,499625000.0
954.614,515170000.0
955.22,529118000.0
955.609,537525000.0
956.386,553871000.0
957.211,570660000.0
958.812,602015000.0
960.413,632811000.0
960.776,640017000.0
961.14,646860000.0
961.376,651369000.0
961.611,655915000.0
962.081,665183000.0
963.021,683685000.0
963.251,688228000.0
963.71,697465000.0
964.629,716123000.0
964.89,721358000.0
965.412,732012000.0
966.456,753933000.0
966.53,755438000.0
966.678,758468000.0
966.975,764535000.0
967.567,776808000.0
968.169,789233000.0
969.372,812101000.0
969.809,820097000.0
970.683,836056000.0
971.065,841807000.0
971.448,840729000.0
971.653,831432000.0
971.858,823872000.0
971.908,822191000.0
972.008,818394000.0
972.108,810010000.0
972.208,802405000.0
972.268,798192000.0
972.37,791221000.0
972.473,784636000.0
972.499,783065000.0
972.524,781578000.0
972.531,781163000.0
972.537,780809000.0
972.543,780452000.0
972.55,780040000.0
972.575,778576000.0
972.601,777085000.0
972.653,774177000.0
972.703,773226000.0
972.803,771960000.0
972.806,771924000.0
972.856,771334000.0
972.956,770200000.0
973.156,768117000.0
973.216,767617000.0
973.336,767398000.0
973.456,771874000.0
973.576,776494000.0
973.626,778493000.0
973.726,782546000.0
973.926,790872000.0
974.326,812408000.0
974.726,836277000.0
975.265,867656000.0
975.804,895642000.0
976.344,919975000.0
976.905,943379000.0
978.028,993428000.0
978.544,1014310000.0
979.576,1054050000.0
980.184,1078300000.0
981.399,1121600000.0
981.823,1135090000.0
982.67,1162500000.0
983.463,1188190000.0
985.048,1240250000.0
985.102,1242070000.0
985.209,1245700000.0
985.423,1253030000.0
985.851,1267810000.0
986.708,1297130000.0
986.742,1298300000.0
986.81,1300630000.0
986.947,1305300000.0
987.221,1314770000.0
987.767,1333730000.0
988.381,1356080000.0
989.608,1400700000.0
990.021,1415430000.0
990.847,1444950000.0
991.66,1475690000.0
993.287,1541930000.0
993.3,1542490000.0
993.35,1544610000.0
993.45,1548820000.0
993.65,1557350000.0
993.85,1565970000.0
994.05,1574730000.0
994.25,1583570000.0
994.45,1592350000.0
994.65,1601070000.0
994.85,1609840000.0
995.05,1618650000.0
995.25,1627280000.0
995.45,1635960000.0
995.65,1644750000.0
995.85,1653160000.0
996.05,1661530000.0
996.25,1669990000.0
996.45,1678580000.0
996.65,1687620000.0
997.05,1705810000.0
997.849,1744390000.0
999.448,1824110000.0
1000.0,1853020000.0
1001.103,1905280000.0
1001.912,1944880000.0
1003.53,2024550000.0
1003.824,2038800000.0
1004.412,2067680000.0
1005.553,2125580000.0
1007.282,2210450000.0
1009.011,2289880000.0
1010.74,2362690000.0
1012.469,2417750000.0
1014.198,2451470000.0
1014.249,2452140000.0
1014.349,2453270000.0
1014.549,2455070000.0
1014.749,2455430000.0
1014.949,2455470000.0
1015.149,2454630000.0
1015.349,2453650000.0
1015.549,2452310000.0
1015.749,2450150000.0
1015.928,2448020000.0
1016.286,2441480000.0
1017.002,2423740000.0
1017.657,2399270000.0
1018.968,2333580000.0
1019.386,2307970000.0
1020.223,2251690000.0
1021.115,2180510000.0
1021.561,2137230000.0
1022.007,2086610000.0
1022.426,2033510000.0
1022.844,1969220000.0
1023.262,1886970000.0
1023.681,1775960000.0
1023.89,1710260000.0
1024.099,1627820000.0
1024.309,1532800000.0
1024.518,1431760000.0
1024.574,1399830000.0
1024.686,1335350000.0
1024.911,1199060000.0
1025.006,1136690000.0
1025.196,1006320000.0
1025.291,931936000.0
1025.386,850890000.0
1025.438,803966000.0
1025.541,711724000.0
1025.546,708238000.0
1025.596,679090000.0
1025.646,670273000.0
1025.654,670237000.0
1025.681,670557000.0
1025.708,670923000.0
1025.715,671018000.0
1025.72,671086000.0
1025.722,671114000.0
1025.729,671209000.0
1025.736,671304000.0
1025.763,671671000.0
1025.79,672040000.0
1025.844,676386000.0
1025.871,686022000.0
1025.898,701736000.0
1025.925,722344000.0
1025.952,745653000.0
1026.005,797484000.0
1026.056,846115000.0
1026.106,892696000.0
1026.156,937915000.0
1026.206,980905000.0
1026.256,1022710000.0
1026.306,1062550000.0
1026.356,1101080000.0
1026.406,1137830000.0
1026.438,1160780000.0
1026.501,1205250000.0
1026.628,1292940000.0
1026.87,1450450000.0
1026.991,1526160000.0
1027.112,1591950000.0
1027.355,1718060000.0
1027.597,1833710000.0
1027.839,1928350000.0
1028.082,2018170000.0
1028.324,2095540000.0
1028.6,2177220000.0
1028.876,2247110000.0
1029.152,2311840000.0
1029.704,2429360000.0
1030.329,2556060000.0
1031.578,2812490000.0
1032.058,2908400000.0
1033.018,3091400000.0
1033.787,3234560000.0
1034.556,3357400000.0
1035.325,3474220000.0
1035.516,3509230000.0
1035.898,3588860000.0
1036.661,3781360000.0
1037.246,3963390000.0
1037.83,4144020000.0
1038.975,4467310000.0
1039.547,4606540000.0
1040.12,4727630000.0
1040.704,4855120000.0
1041.873,5115740000.0
1042.433,5234340000.0
1043.553,5464140000.0
1044.162,5590500000.0
1045.38,5859140000.0
1045.892,5977890000.0
1046.916,6223820000.0
1047.621,6386830000.0
1048.81,6660730000.0
1050.0,6949540000.0
1052.38,7473120000.0
1054.76,8006310000.0
1055.0,8058940000.0
1055.48,8166110000.0
1056.441,8368550000.0
1058.363,8748430000.0
1059.182,8978980000.0
1060.0,9246420000.0
1061.637,9856680000.0
1062.455,10257600000.0
1063.273,10694000000.0
1064.91,11601300000.0
1065.0,11651000000.0
1065.18,11743800000.0
1065.539,11938900000.0
1066.258,12282400000.0
1067.695,12945300000.0
1068.848,13422200000.0
1070.0,13820300000.0
1072.305,14680300000.0
1075.0,15534300000.0
1075.674,15743800000.0
1076.348,16014700000.0
1077.021,16386600000.0
1077.695,16876700000.0
1079.043,18017700000.0
1079.521,18516400000.0
1080.0,19038300000.0
1080.957,20206600000.0
1081.538,20999500000.0
1082.7,22509600000.0
1083.077,23029500000.0
1083.831,24055300000.0
1084.586,24878100000.0
1085.34,25706400000.0
1086.538,26997400000.0
1087.736,28394100000.0
1088.933,29988900000.0
1090.0,31670200000.0
1091.067,33055200000.0
1092.133,34446200000.0
1093.2,36033100000.0
1094.266,37840800000.0
1095.0,39278300000.0
1096.468,42565100000.0
1097.202,43893200000.0
1097.936,45337700000.0
1098.669,46961500000.0
1099.403,48760700000.0
1100.0,50390400000.0
1101.193,54095000000.0
1101.79,56183500000.0
1102.387,58586600000.0
1102.983,60636900000.0
1103.58,62413400000.0
1104.773,66529400000.0
1105.0,67459500000.0
1105.453,69209600000.0
1106.359,73141600000.0
1107.266,77657300000.0
1108.172,82732200000.0
1109.078,88279400000.0
1109.531,89885900000.0
1109.984,91597000000.0
1110.0,91622000000.0
1110.05,91814600000.0
1110.1,92024900000.0
1110.15,92222700000.0
1110.2,92420200000.0
1110.25,92622500000.0
1110.3,92816200000.0
1110.35,93010000000.0
1110.4,93204400000.0
1110.45,93419500000.0
1110.5,93628100000.0
1110.551,93827800000.0
1110.601,94030600000.0
1110.651,94233800000.0
1110.701,94482400000.0
1110.751,94627000000.0
1110.801,94834000000.0
1110.851,95046700000.0
1110.901,95278000000.0
1110.951,95491300000.0
1111.001,95711100000.0
1111.051,95882300000.0
1111.101,96049900000.0
1111.151,96219400000.0
1111.201,96391900000.0
1111.251,96568400000.0
1111.301,96752700000.0
1111.351,96930300000.0
1111.401,97130000000.0
1111.451,97239100000.0
1111.501,97420600000.0
1111.552,97605300000.0
1111.602,97801200000.0
1111.652,97992500000.0
1111.702,98183700000.0
1111.752,98374900000.0
1111.802,98568200000.0
1111.852,98765300000.0
1111.902,98978000000.0
1111.952,99177500000.0
1112.002,99299300000.0
1112.052,99528800000.0
1112.102,99739100000.0
1112.152,99949100000.0
1112.202,100165000000.0
1112.252,100381000000.0
1112.302,100612000000.0
1112.352,100837000000.0
1112.402,101062000000.0
1112.452,101202000000.0
1112.502,101428000000.0
1112.552,101608000000.0
1112.603,101844000000.0
1112.653,102089000000.0
1112.703,102324000000.0
1112.753,102563000000.0
1112.803,102803000000.0
1112.853,102956000000.0
1112.903,103205000000.0
1112.953,103453000000.0
1113.003,103700000000.0
1113.053,103929000000.0
1113.103,104174000000.0
1113.153,104445000000.0
1113.203,104680000000.0
1113.253,104825000000.0
1113.303,105063000000.0
1113.353,105307000000.0
1113.403,105551000000.0
1113.453,105802000000.0
1113.503,106050000000.0
1113.553,106302000000.0
1113.604,106398000000.0
1113.654,106668000000.0
1113.704,106923000000.0
1113.754,107188000000.0
1113.804,107450000000.0
1113.854,107713000000.0
1113.904,107877000000.0
1113.954,108141000000.0
1114.004,108411000000.0
1114.054,108679000000.0
1114.104,108957000000.0
1114.154,109229000000.0
1114.204,109338000000.0
1114.254,109616000000.0
1114.304,109894000000.0
1114.354,110193000000.0
1114.404,110475000000.0
1114.454,110759000000.0
1114.504,110953000000.0
1114.554,111242000000.0
1114.604,111532000000.0
1114.655,111824000000.0
1114.705,112078000000.0
1114.755,112095000000.0
1114.805,112179000000.0
1114.855,112269000000.0
1114.905,112374000000.0
1114.955,112472000000.0
1115.0,112590000000.0
1115.09,112671000000.0
1115.271,112868000000.0
1115.632,113225000000.0
1116.355,114138000000.0
1117.8,116070000000.0
1118.35,116702000000.0
1118.9,117330000000.0
1119.45,115075000000.0
1120.0,112462000000.0
1121.1,108213000000.0
1121.65,104714000000.0
1122.2,101467000000.0
1123.3,94082000000.0
1123.849,88795500000.0
1124.399,83971400000.0
1125.0,79071700000.0
1125.601,73136800000.0
1126.201,68009900000.0
1127.402,57869400000.0
1128.003,53253600000.0
1128.604,49325800000.0
1129.204,45677400000.0
1129.805,42233200000.0
1130.0,41234900000.0
1130.391,39438200000.0
1130.781,37860400000.0
1131.154,36401000000.0
1131.9,33812000000.0
1132.308,32696000000.0
1132.716,31736900000.0
1133.533,29913000000.0
1134.35,28538500000.0
1135.166,27491800000.0
1136.154,26451100000.0
1136.648,26073300000.0
1137.142,25725200000.0
1138.13,25060800000.0
1139.065,24632800000.0
1140.0,24197000000.0
1140.935,23912500000.0
1141.87,23638400000.0
1143.741,23278100000.0
1145.0,23133900000.0
1147.519,22941500000.0
1150.0,22932400000.0
1152.481,23025700000.0
1157.444,23320100000.0
1162.407,23638000000.0
1165.769,23845700000.0
1169.131,24039400000.0
1172.493,24190900000.0
1175.854,24427500000.0
1179.216,24794600000.0
1181.538,25123000000.0
1185.628,25915400000.0
1189.718,26865400000.0
1191.767,27269000000.0
1193.816,27558400000.0
1195.866,27705700000.0
1197.915,27737300000.0
1199.964,27701300000.0
1202.014,27570800000.0
1204.063,27241000000.0
1205.087,26904000000.0
1206.112,26464300000.0
1206.113,26463800000.0
1206.163,26437900000.0
1206.213,26412500000.0
1206.263,26387500000.0
1206.313,26362900000.0
1206.363,26338700000.0
1206.413,26315000000.0
1206.463,26291700000.0
1206.513,26265500000.0
1206.563,26231200000.0
1206.614,26197400000.0
1206.664,26164400000.0
1206.714,26131900000.0
1206.764,26100000000.0
1206.814,26068700000.0
1206.864,26038100000.0
1206.914,26007900000.0
1206.964,25978300000.0
1207.014,25945400000.0
1207.064,25904100000.0
1207.114,25863000000.0
1207.164,25822500000.0
1207.214,25783000000.0
1207.264,25744100000.0
1207.314,25706100000.0
1207.364,25668200000.0
1207.414,25631800000.0
1207.464,25597600000.0
1207.514,25561500000.0
1207.564,25519500000.0
1207.615,25477900000.0
1207.665,25437300000.0
1207.715,25397400000.0
1207.765,25358200000.0
1207.815,25319700000.0
1207.865,25281800000.0
1207.915,25244800000.0
1207.965,25208500000.0
1208.015,25170900000.0
1208.065,25129100000.0
1208.115,25088200000.0
1208.162,25050500000.0
1208.256,24976400000.0
1208.444,24835900000.0
1208.82,24510000000.0
1209.572,23745100000.0
1210.211,23107600000.0
1211.489,21732700000.0
1212.261,20958600000.0
1213.804,19596500000.0
1214.31,19298000000.0
1214.816,19033300000.0
1214.822,19028700000.0
1214.872,18986500000.0
1214.922,18935700000.0
1214.972,18873800000.0
1215.022,18810000000.0
1215.072,18736200000.0
1215.122,18637400000.0
1215.172,18504800000.0
1215.222,18328000000.0
1215.272,18092400000.0
1215.323,17793600000.0
1215.335,17708300000.0
1215.385,17319500000.0
1215.435,16873500000.0
1215.463,16622600000.0
1215.519,16222600000.0
1215.547,16118000000.0
1215.575,16085800000.0
1215.591,16086400000.0
1215.623,16093200000.0
1215.655,16100300000.0
1215.663,16102100000.0
1215.67,16103600000.0
1215.679,16105600000.0
1215.687,16107400000.0
1215.719,16114500000.0
1215.751,16122000000.0
1215.815,16258700000.0
1215.847,16470400000.0
1215.879,16759900000.0
1215.929,17288400000.0
1215.979,17795600000.0
1216.007,18058500000.0
1216.063,18544800000.0
1216.118,18953900000.0
1216.174,19304000000.0
1216.285,19907300000.0
1216.397,20411200000.0
1216.508,20888200000.0
1216.52,20930000000.0
1216.57,21100300000.0
1216.62,21266500000.0
1216.67,21430200000.0
1216.72,21594700000.0
1216.77,21761300000.0
1216.82,21930200000.0
1216.87,22102000000.0
1216.92,22278600000.0
1216.97,22464100000.0
1217.021,22636300000.0
1217.032,22669600000.0
1217.082,22817300000.0
1217.132,22971500000.0
1217.182,23132100000.0
1217.232,23295400000.0
1217.282,23462800000.0
1217.332,23636800000.0
