Wavelength,Flux
900.0,11764200.0
903.442,12962700.0
904.998,13540200.0
906.554,14141100.0
908.11,14766300.0
909.667,15417100.0
910.703,15864500.0
911.74,16324100.0
911.84,16369100.0
912.0,16441300.0
912.31,16581900.0
912.779,16796800.0
913.717,17234300.0
914.335,17551400.0
915.329,18010300.0
915.824,18254900.0
915.892,18288800.0
915.96,18371400.0
916.028,18689300.0
916.096,18898900.0
916.164,18953200.0
916.232,18816500.0
916.3,18521400.0
916.365,18525600.0
916.429,18558100.0
916.558,18655700.0
916.622,19124700.0
916.686,19529100.0
916.751,19803000.0
916.815,19934600.0
916.879,19910100.0
916.944,19677600.0
917.008,19237700.0
917.072,18886900.0
917.127,18913300.0
917.181,18941200.0
917.29,18998700.0
917.369,19642200.0
917.448,20481600.0
917.527,21099800.0
917.606,21488500.0
917.685,21662200.0
917.765,21557800.0
917.844,21107500.0
917.923,20260100.0
917.963,19785200.0
918.002,19396000.0
918.042,19388600.0
918.081,19409400.0
918.121,19430100.0
918.129,19434500.0
918.179,19460800.0
918.229,19487300.0
918.279,19727300.0
918.329,20495300.0
918.379,21321700.0
918.479,22835600.0
918.529,23425400.0
918.579,23933200.0
918.629,24328700.0
918.679,24626400.0
918.729,24831800.0
918.779,24941600.0
918.829,24938600.0
918.879,24806500.0
918.929,24515000.0
918.979,24025900.0
919.004,23694000.0
919.054,22915800.0
919.105,21961600.0
919.155,20998400.0
919.18,20577400.0
919.206,20171800.0
919.231,20032500.0
919.256,20036200.0
919.307,20063500.0
919.351,20087600.0
919.44,20136000.0
919.484,20219600.0
919.529,20918200.0
919.573,21862600.0
919.618,22987700.0
919.707,25265800.0
919.796,27274300.0
919.885,28847900.0
919.974,30036000.0
920.063,30856900.0
920.152,31372300.0
920.241,31570100.0
920.33,31378600.0
920.419,30657000.0
920.489,29608900.0
920.56,28040600.0
920.631,26017800.0
920.701,23832300.0
920.736,22796500.0
920.772,21942300.0
920.807,21224900.0
920.842,20919900.0
920.878,20931600.0
920.913,20951500.0
920.963,20979800.0
921.063,21036600.0
921.089,21067800.0
921.114,21303600.0
921.139,21824400.0
921.164,22411300.0
921.189,23090300.0
921.214,23885100.0
921.24,24758800.0
921.264,25667800.0
921.315,27598200.0
921.415,31361100.0
921.515,34523200.0
921.615,37005000.0
921.665,38014200.0
921.715,38922300.0
921.815,40396200.0
921.914,41513100.0
922.014,42299800.0
922.114,42742200.0
922.117,42747900.0
922.167,42820400.0
922.267,42625300.0
922.317,42324400.0
922.367,41873100.0
922.417,41245200.0
922.467,40411500.0
922.506,39629400.0
922.545,38680700.0
922.584,37579300.0
922.623,36300500.0
922.662,34897300.0
922.701,33334400.0
922.74,31658500.0
922.818,28197500.0
922.857,26587600.0
922.895,25126700.0
922.933,23899900.0
922.972,22950100.0
922.992,22519600.0
923.042,22183800.0
923.089,22211600.0
923.114,22226500.0
923.138,22240800.0
923.144,22244400.0
923.15,22248000.0
923.156,22251500.0
923.162,22255100.0
923.187,22270000.0
923.211,22284300.0
923.261,22314600.0
923.308,22709700.0
923.358,23931500.0
923.405,25481400.0
923.455,27544900.0
923.505,29903400.0
923.555,32396000.0
923.655,37338600.0
923.724,40483300.0
923.794,43344700.0
923.864,45914900.0
923.933,48210100.0
924.003,50263500.0
924.072,52071600.0
924.183,54558400.0
924.294,56568900.0
924.405,58220400.0
924.436,58629900.0
924.498,59373700.0
924.623,60580300.0
924.688,61057600.0
924.818,61610000.0
924.878,61595600.0
924.939,61437900.0
925.06,60648900.0
925.121,59979800.0
925.181,59117800.0
925.189,58995000.0
925.239,58086900.0
925.339,55714100.0
925.389,54265300.0
925.439,52553000.0
925.489,50648300.0
925.539,48597600.0
925.579,46828100.0
925.659,42965300.0
925.739,38818600.0
925.819,34508800.0
925.895,30601000.0
925.97,27257200.0
926.018,25626400.0
926.067,24433900.0
926.116,24079100.0
926.164,24110200.0
926.189,24126100.0
926.214,24142200.0
926.22,24146000.0
926.226,24149900.0
926.232,24153700.0
926.238,24157600.0
926.263,24173600.0
926.287,24189000.0
926.337,24221200.0
926.385,24641200.0
926.435,25956000.0
926.482,27628900.0
926.532,29867900.0
926.582,32454400.0
926.632,35242900.0
926.682,38139800.0
926.782,43929700.0
926.873,49089700.0
926.964,54075700.0
927.055,58812600.0
927.146,63131800.0
927.237,67040800.0
927.263,68094000.0
927.315,70108500.0
927.418,73777800.0
927.521,76956600.0
927.624,79795400.0
927.727,82146100.0
927.83,84175200.0
927.875,84985500.0
927.966,86459300.0
928.147,88935300.0
928.328,90793900.0
928.487,91910300.0
928.646,92518100.0
928.804,92552900.0
928.963,91899600.0
929.097,90712200.0
929.231,88894900.0
929.299,87569200.0
929.366,85989300.0
929.433,84252600.0
929.5,82303200.0
929.568,80043500.0
929.635,77464000.0
929.702,74652000.0
929.706,74485900.0
929.756,72195700.0
929.856,67235700.0
929.956,61745600.0
930.056,55912100.0
930.098,53378200.0
930.182,48284800.0
930.351,37992900.0
930.421,33990000.0
930.491,30596200.0
930.54,28790700.0
930.589,27481400.0
930.638,27136800.0
930.687,27171800.0
930.711,27189000.0
930.736,27206900.0
930.742,27211200.0
930.748,27215500.0
930.754,27219800.0
930.76,27224100.0
930.785,27241900.0
930.809,27259200.0
930.859,27295100.0
930.907,27712000.0
930.957,29142000.0
931.005,31013800.0
931.055,33477000.0
931.105,36326700.0
931.155,39412300.0
931.205,42649200.0
931.305,49188900.0
931.398,55282900.0
931.584,67369300.0
931.687,73660400.0
931.79,79530500.0
931.893,84963800.0
931.996,89864800.0
932.099,94284000.0
932.202,98336000.0
932.305,101947000.0
932.407,105272000.0
932.613,110906000.0
932.819,115590000.0
933.025,119474000.0
933.033,119611000.0
933.083,120426000.0
933.183,121948000.0
933.383,124651000.0
933.583,126897000.0
933.783,128734000.0
933.983,130180000.0
934.183,131301000.0
934.276,131718000.0
934.462,132350000.0
934.834,132642000.0
935.02,132215000.0
935.206,131317000.0
935.514,128592000.0
935.668,126495000.0
935.822,123834000.0
935.977,120554000.0
936.131,116517000.0
936.285,111545000.0
936.439,105703000.0
936.516,102324000.0
936.593,98731400.0
936.67,94725200.0
936.747,90415900.0
936.753,90093200.0
936.803,87079700.0
936.903,80784700.0
937.003,74019400.0
937.103,66957600.0
937.148,63715600.0
937.238,57227200.0
937.419,44254200.0
937.481,40141500.0
937.544,36646600.0
937.593,34536600.0
937.642,33022800.0
937.691,32616100.0
937.74,32657400.0
937.766,32679400.0
937.791,32700500.0
937.797,32705600.0
937.803,32710600.0
937.809,32715700.0
937.815,32720800.0
937.84,32742000.0
937.865,32763100.0
937.915,32805400.0
937.964,33300800.0
938.014,34954600.0
938.062,37141500.0
938.112,40012400.0
938.162,43332900.0
938.212,46937200.0
938.262,50745300.0
938.362,58443900.0
938.458,65878800.0
938.65,80696700.0
938.752,88128000.0
938.853,95116500.0
938.954,101657000.0
939.056,107607000.0
939.157,113088000.0
939.259,118131000.0
939.462,127115000.0
939.563,131040000.0
939.665,134702000.0
939.867,141249000.0
940.07,146890000.0
940.273,151846000.0
940.434,155235000.0
940.756,161034000.0
941.077,166046000.0
941.399,170189000.0
941.721,173883000.0
942.015,176975000.0
942.604,182338000.0
942.894,184621000.0
943.474,188680000.0
943.773,190285000.0
944.37,192781000.0
944.625,193446000.0
945.135,194017000.0
945.478,193738000.0
946.165,191393000.0
946.508,189026000.0
946.852,185478000.0
947.079,182330000.0
947.306,178259000.0
947.534,173030000.0
947.761,166563000.0
947.989,158498000.0
948.216,148377000.0
948.443,135790000.0
948.562,128068000.0
948.68,119314000.0
948.798,109751000.0
948.916,99415100.0
949.08,84407400.0
949.244,69149700.0
949.303,63672300.0
949.362,58348900.0
949.421,53474800.0
949.48,49348300.0
949.53,46615800.0
949.58,44720400.0
949.63,44223600.0
949.68,44279200.0
949.705,44307100.0
949.73,44334900.0
949.737,44342600.0
949.743,44349400.0
949.749,44356100.0
949.755,44362700.0
949.781,44391800.0
949.806,44419700.0
949.856,44475600.0
949.906,45088200.0
949.956,47116600.0
950.006,50001900.0
950.056,53615800.0
950.106,57823100.0
950.156,62412200.0
950.206,67274200.0
950.306,77164800.0
950.406,87192900.0
950.606,107122000.0
950.706,116618000.0
950.806,125611000.0
950.906,134077000.0
951.006,141904000.0
951.106,149042000.0
951.206,155766000.0
951.406,167644000.0
951.605,177803000.0
951.805,186732000.0
952.005,194527000.0
952.205,201474000.0
952.407,207570000.0
952.811,217960000.0
953.216,226830000.0
953.62,234865000.0
954.008,242284000.0
954.784,255618000.0
955.56,267748000.0
955.609,268489000.0
955.706,269978000.0
955.9,272893000.0
956.288,278966000.0
957.065,290229000.0
957.211,292348000.0
957.504,296523000.0
958.089,304502000.0
958.812,314471000.0
960.258,334379000.0
960.413,336543000.0
960.722,341003000.0
960.776,342983000.0
960.884,344638000.0
960.991,346365000.0
961.14,348545000.0
961.376,351670000.0
961.611,354881000.0
962.081,361663000.0
963.021,376520000.0
963.251,379723000.0
963.71,386470000.0
964.629,401379000.0
964.89,405904000.0
965.412,413436000.0
966.456,429172000.0
966.53,430370000.0
966.678,432848000.0
966.975,437764000.0
967.567,444005000.0
968.16,448735000.0
968.169,448772000.0
968.219,449080000.0
968.319,449663000.0
968.519,450859000.0
968.719,452115000.0
968.919,452091000.0
969.119,452007000.0
969.319,451555000.0
969.519,450586000.0
969.719,449443000.0
969.809,448944000.0
969.989,447976000.0
970.349,444533000.0
971.069,436017000.0
971.163,434815000.0
971.258,433611000.0
971.306,433002000.0
971.353,430102000.0
971.401,422542000.0
971.448,416195000.0
971.498,410645000.0
971.598,401881000.0
971.698,395326000.0
971.798,390334000.0
971.858,387836000.0
971.978,383655000.0
972.098,377027000.0
972.218,371372000.0
972.268,369354000.0
972.367,365716000.0
972.37,365627000.0
972.42,363963000.0
972.473,362369000.0
972.499,361657000.0
972.524,360998000.0
972.531,360816000.0
972.537,360663000.0
972.543,360510000.0
972.55,360335000.0
972.575,359718000.0
972.601,359096000.0
972.653,357908000.0
972.703,357555000.0
972.803,357133000.0
972.806,357120000.0
972.856,356926000.0
972.956,356567000.0
973.156,355955000.0
973.216,355795000.0
973.336,355798000.0
973.456,357780000.0
973.576,359794000.0
973.626,360644000.0
973.726,362370000.0
973.926,365916000.0
974.326,375111000.0
974.726,385972000.0
975.265,401270000.0
976.344,430181000.0
976.905,444977000.0
977.466,462269000.0
978.028,485321000.0
978.544,506677000.0
979.06,530336000.0
979.576,560883000.0
979.88,585533000.0
980.184,613043000.0
980.792,674335000.0
981.096,697550000.0
981.399,723113000.0
981.611,734642000.0
981.823,746928000.0
982.247,772039000.0
983.094,818064000.0
983.463,835406000.0
984.202,875211000.0
984.571,899476000.0
984.94,925307000.0
985.102,935220000.0
985.426,953112000.0
986.074,985441000.0
986.742,1025260000.0
987.41,1072340000.0
988.079,1113270000.0
988.23,1116770000.0
988.381,1120240000.0
988.683,1128040000.0
988.985,1141930000.0
989.287,1160530000.0
989.891,1194770000.0
990.021,1198470000.0
990.281,1202710000.0
990.801,1199870000.0
991.321,1208430000.0
991.66,1220010000.0
991.999,1243420000.0
992.338,1268190000.0
993.016,1327710000.0
993.3,1362230000.0
993.584,1400790000.0
994.153,1491930000.0
994.721,1569860000.0
995.006,1596140000.0
995.29,1605720000.0
995.859,1629080000.0
996.254,1654420000.0
996.65,1705300000.0
997.046,1768680000.0
997.441,1848320000.0
997.837,1941210000.0
998.233,2043880000.0
999.024,2263400000.0
999.222,2307890000.0
999.419,2327380000.0
999.518,2337630000.0
999.617,2349380000.0
999.667,2355310000.0
999.716,2361350000.0
999.766,2558180000.0
999.815,2565970000.0
999.864,2573240000.0
999.963,2581840000.0
1000.0,2584470000.0
1000.073,2590080000.0
1000.22,2602210000.0
1000.514,2628940000.0
1000.808,2639550000.0
1001.102,2650740000.0
1001.396,2647260000.0
1001.69,2622340000.0
1001.912,2606040000.0
1002.356,2573930000.0
1003.243,2499810000.0
1003.533,2466340000.0
1003.824,2422830000.0
1004.405,2331950000.0
1005.553,2153160000.0
1007.282,1871350000.0
1008.146,1745210000.0
1009.011,1636230000.0
1009.875,1541750000.0
1010.74,1458650000.0
1011.604,1386900000.0
1012.469,1324980000.0
1013.333,1271310000.0
1014.198,1225350000.0
1014.249,1222890000.0
1014.349,1218210000.0
1014.549,1209170000.0
1014.749,1200250000.0
1014.949,1192040000.0
1015.149,1183770000.0
1015.349,1175980000.0
1015.549,1168650000.0
1015.749,1161420000.0
1015.928,1155450000.0
1016.286,1143570000.0
1017.002,1122730000.0
1017.657,1105840000.0
1018.968,1076810000.0
1019.386,1068070000.0
1020.223,1050640000.0
1021.115,1028450000.0
1021.979,999056000.0
1022.844,952225000.0
1023.276,913017000.0
1023.708,856231000.0
1023.925,821328000.0
1024.141,773706000.0
1024.357,720232000.0
1024.573,658374000.0
1024.624,641409000.0
1024.674,624382000.0
1024.724,607562000.0
1024.774,590038000.0
1024.824,572025000.0
1024.874,553910000.0
1024.924,534694000.0
1024.974,515065000.0
1025.006,502586000.0
1025.069,477644000.0
1025.132,451127000.0
1025.196,423217000.0
1025.259,393810000.0
1025.322,363265000.0
1025.438,308030000.0
1025.492,286267000.0
1025.546,269675000.0
1025.596,259707000.0
1025.646,256029000.0
1025.654,255967000.0
1025.681,256066000.0
1025.708,256212000.0
1025.715,256250000.0
1025.72,256278000.0
1025.722,256289000.0
1025.729,256326000.0
1025.736,256364000.0
1025.763,256511000.0
1025.79,256659000.0
1025.844,258734000.0
1025.871,262372000.0
1025.898,267744000.0
1025.925,274809000.0
1025.952,283298000.0
1025.979,293291000.0
1026.005,304480000.0
1026.056,328125000.0
1026.106,353175000.0
1026.156,379062000.0
1026.206,404531000.0
1026.256,429270000.0
1026.306,453111000.0
1026.356,476628000.0
1026.406,498900000.0
1026.438,512551000.0
1026.501,538773000.0
1026.628,590707000.0
1026.749,637207000.0
1026.87,681398000.0
1026.92,699098000.0
1026.97,717062000.0
1027.02,733753000.0
1027.07,748440000.0
1027.12,762705000.0
1027.17,776713000.0
1027.22,791049000.0
1027.27,805195000.0
1027.32,818956000.0
1027.37,832459000.0
1027.421,846319000.0
1027.471,860352000.0
1027.521,873210000.0
1027.571,883628000.0
1027.621,893823000.0
1027.671,903880000.0
1027.721,913862000.0
1027.771,923699000.0
1027.821,933673000.0
1027.871,943499000.0
1027.921,953280000.0
1027.971,963059000.0
1028.021,972104000.0
1028.071,980046000.0
1028.121,987875000.0
1028.171,995619000.0
1028.221,1003330000.0
1028.271,1010960000.0
1028.321,1018740000.0
1028.371,1026410000.0
1028.422,1034050000.0
1028.472,1041650000.0
1028.522,1048580000.0
1028.572,1054560000.0
1028.6,1057870000.0
1028.657,1064440000.0
1028.77,1077390000.0
1028.996,1103040000.0
1029.45,1145410000.0
1029.903,1183480000.0
1030.329,1217390000.0
1031.182,1287640000.0
1032.058,1360000000.0
1033.787,1497610000.0
1035.516,1623390000.0
1035.948,1667590000.0
1036.38,1721370000.0
1036.813,1790450000.0
1037.245,1874690000.0
1037.296,1885610000.0
1037.346,1896680000.0
1037.396,1908110000.0
1037.446,1919940000.0
1037.496,1932180000.0
1037.546,1942110000.0
1037.596,1952060000.0
1037.646,1962260000.0
1037.696,1972710000.0
1037.746,1983430000.0
1037.797,1994410000.0
1037.847,2005670000.0
1037.897,2017230000.0
1037.947,2029090000.0
1037.997,2041280000.0
1038.047,2052210000.0
1038.097,2063260000.0
1038.147,2074560000.0
1038.197,2086100000.0
1038.247,2097920000.0
1038.297,2110030000.0
1038.347,2122440000.0
1038.397,2135150000.0
1038.447,2148180000.0
1038.497,2161550000.0
1038.547,2173920000.0
1038.597,2186490000.0
1038.647,2199330000.0
1038.697,2212470000.0
1038.747,2225900000.0
1038.797,2239640000.0
1038.848,2253720000.0
1038.898,2268140000.0
1038.948,2282920000.0
1038.975,2291150000.0
1039.03,2305850000.0
1039.139,2332480000.0
1039.358,2388680000.0
1039.795,2492370000.0
1040.67,2705110000.0
1040.704,2714490000.0
1040.771,2733450000.0
1040.906,2772310000.0
1041.176,2851840000.0
1041.715,3015260000.0
1042.433,3222590000.0
1043.151,3436470000.0
1043.87,3682230000.0
1044.162,3791030000.0
1044.747,4025270000.0
1045.319,4287090000.0
1045.892,4601260000.0
1046.464,4955830000.0
1047.037,5293380000.0
1047.621,5586940000.0
1048.205,5894880000.0
1048.508,6080090000.0
1048.81,6315610000.0
1049.415,6852770000.0
1050.0,7380560000.0
1050.585,7767660000.0
1051.17,8045020000.0
1051.755,8278550000.0
1052.34,8499010000.0
1052.925,8683800000.0
1053.51,8812320000.0
1054.68,9083000000.0
1055.0,9194260000.0
1055.641,9412960000.0
1055.961,9483220000.0
1056.281,9470960000.0
1056.602,9419200000.0
1056.922,9315850000.0
1057.562,9073250000.0
1057.883,8984510000.0
1058.203,8950570000.0
1058.523,8953400000.0
1058.844,9048630000.0
1059.164,9192530000.0
1059.484,9387210000.0
1059.742,9611130000.0
1060.0,9848280000.0
1060.258,10153800000.0
1060.516,10483700000.0
1060.773,10895100000.0
1061.031,11345600000.0
1061.289,11899500000.0
1061.547,12522600000.0
1061.805,13294100000.0
1062.062,14195700000.0
1062.32,15296400000.0
1062.578,16567300000.0
1062.836,18055100000.0
1063.094,19749600000.0
1063.352,21667000000.0
1063.609,23816900000.0
1063.867,26104100000.0
1064.125,28461100000.0
1064.641,33227000000.0
1065.0,36552400000.0
1065.359,39562900000.0
1065.719,42674800000.0
1066.078,45924900000.0
1066.438,49421200000.0
1067.156,56927200000.0
1067.516,60660200000.0
1067.875,63237600000.0
1068.234,64584400000.0
1068.594,64673100000.0
1068.773,63956800000.0
1068.953,63246300000.0
1069.133,61964900000.0
1069.312,60524600000.0
1069.672,57480600000.0
1070.0,54641800000.0
1070.328,52070800000.0
1070.656,49889400000.0
1070.984,48056800000.0
1071.312,46815500000.0
1071.641,45794100000.0
1071.969,44998600000.0
1072.625,43571400000.0
1072.953,42723700000.0
1073.281,41534000000.0
1073.609,40186500000.0
1073.938,38617900000.0
1074.594,35166500000.0
1075.0,33150300000.0
1075.406,31485800000.0
1075.812,30262800000.0
1076.219,29530100000.0
1076.625,29317000000.0
1076.828,29458000000.0
1077.031,29660700000.0
1077.234,30212700000.0
1077.438,30778700000.0
1077.641,31646300000.0
1077.844,32681800000.0
1078.047,33857800000.0
1078.25,35433700000.0
1078.453,37131800000.0
1078.656,39265200000.0
1078.859,41700700000.0
1079.062,44456400000.0
1079.266,47708500000.0
1079.469,51338900000.0
1079.672,55504300000.0
1079.875,60235700000.0
1080.0,63469000000.0
1080.125,66899300000.0
1080.25,70651600000.0
1080.375,74739200000.0
1080.625,83715900000.0
1080.75,88641600000.0
1080.875,94009700000.0
1081.125,105639000000.0
1081.25,111957000000.0
1081.375,118848000000.0
1081.538,128513000000.0
1081.701,138278000000.0
1081.864,149158000000.0
1082.027,160988000000.0
1082.353,185124000000.0
1082.679,212206000000.0
1083.005,242499000000.0
1083.077,248756000000.0
1083.222,261998000000.0
1083.367,276300000000.0
1083.511,291522000000.0
1083.801,319657000000.0
1084.09,349986000000.0
1084.38,379681000000.0
1084.959,440432000000.0
1085.538,498539000000.0
1086.117,552736000000.0
1086.538,591526000000.0
1087.379,664654000000.0
1088.221,731076000000.0
1089.062,794752000000.0
1090.0,857869000000.0
1090.938,916795000000.0
1091.876,966149000000.0
1092.814,1009160000000.0
1093.752,1048200000000.0
1094.691,1083510000000.0
1095.0,1094460000000.0
1095.619,1112890000000.0
1096.857,1145970000000.0
1098.094,1163000000000.0
1099.332,1170550000000.0
1100.0,1167420000000.0
1100.668,1163280000000.0
1102.003,1146130000000.0
1103.339,1123380000000.0
1105.0,1088890000000.0
1105.831,1063610000000.0
1106.661,1038310000000.0
1107.492,1007830000000.0
1108.323,974317000000.0
1109.153,939195000000.0
1109.984,894675000000.0
1110.0,893845000000.0
1110.05,891229000000.0
1110.1,888620000000.0
1110.15,886019000000.0
1110.2,883425000000.0
1110.25,880839000000.0
1110.3,878261000000.0
1110.35,875691000000.0
1110.4,873129000000.0
1110.45,870573000000.0
1110.5,868026000000.0
1110.551,865487000000.0
1110.601,862954000000.0
1110.651,860425000000.0
1110.701,857904000000.0
1110.751,855390000000.0
1110.801,852885000000.0
1110.851,850387000000.0
1110.901,847896000000.0
1110.951,845413000000.0
1111.001,842922000000.0
1111.051,839729000000.0
1111.101,836554000000.0
1111.151,833393000000.0
1111.201,830245000000.0
1111.251,827110000000.0
1111.301,823987000000.0
1111.351,820879000000.0
1111.401,817783000000.0
1111.451,814701000000.0
1111.501,811635000000.0
1111.552,808583000000.0
1111.602,805546000000.0
1111.652,802522000000.0
1111.702,799510000000.0
1111.752,796511000000.0
1111.802,793525000000.0
1111.852,790550000000.0
1111.902,787588000000.0
1111.952,784640000000.0
1112.002,781703000000.0
1112.052,778780000000.0
1112.102,775870000000.0
