Wavelength,Flux
900.0,660061000.0
903.442,716230000.0
904.998,742996000.0
906.554,770656000.0
908.11,799233000.0
909.667,828774000.0
910.703,848967000.0
911.74,869620000.0
911.84,871634000.0
912.0,874868000.0
912.31,881161000.0
912.779,890761000.0
913.717,910239000.0
914.335,923360000.0
915.329,944597000.0
915.824,955381000.0
915.892,956872000.0
916.028,961321000.0
916.3,965979000.0
916.429,968711000.0
916.686,979719000.0
916.944,985595000.0
917.181,985510000.0
917.3,988260000.0
917.418,998548000.0
917.448,1001940000.0
917.507,1007870000.0
917.626,1015310000.0
917.745,1018130000.0
917.863,1013730000.0
918.101,1006400000.0
918.129,1007060000.0
918.186,1008360000.0
918.3,1013570000.0
918.413,1033120000.0
918.527,1049330000.0
918.641,1059690000.0
918.755,1065870000.0
918.869,1067970000.0
918.982,1063530000.0
919.004,1061480000.0
919.054,1055220000.0
919.154,1038040000.0
919.253,1033140000.0
919.351,1035450000.0
919.548,1047920000.0
919.647,1074190000.0
919.745,1097010000.0
919.844,1113320000.0
919.942,1124860000.0
920.139,1140100000.0
920.336,1145960000.0
920.435,1143420000.0
920.533,1134510000.0
920.56,1130540000.0
920.614,1119950000.0
920.721,1090720000.0
920.829,1071210000.0
920.882,1072040000.0
920.936,1073350000.0
920.963,1074000000.0
921.017,1075320000.0
921.125,1080910000.0
921.233,1115050000.0
921.342,1155350000.0
921.45,1186010000.0
921.558,1207630000.0
921.666,1223590000.0
921.774,1236190000.0
921.99,1254400000.0
922.117,1261850000.0
922.37,1267630000.0
922.506,1261790000.0
922.574,1254580000.0
922.642,1243290000.0
922.71,1227090000.0
922.778,1204490000.0
922.846,1176860000.0
922.895,1156060000.0
922.943,1137890000.0
922.992,1127070000.0
923.042,1125630000.0
923.089,1126800000.0
923.114,1127440000.0
923.138,1128050000.0
923.144,1128200000.0
923.15,1128350000.0
923.156,1128510000.0
923.162,1128660000.0
923.187,1129290000.0
923.211,1129910000.0
923.261,1131200000.0
923.308,1135140000.0
923.355,1148160000.0
923.402,1168980000.0
923.405,1170400000.0
923.455,1195990000.0
923.555,1247290000.0
923.655,1288710000.0
923.755,1320800000.0
923.794,1330960000.0
923.872,1348460000.0
924.028,1375910000.0
924.183,1396320000.0
924.436,1421700000.0
924.688,1440750000.0
924.939,1454260000.0
925.189,1459220000.0
925.314,1455950000.0
925.439,1445930000.0
925.579,1421700000.0
925.649,1402520000.0
925.719,1377410000.0
925.789,1345170000.0
925.859,1307580000.0
925.97,1243530000.0
926.018,1221020000.0
926.067,1207940000.0
926.116,1205990000.0
926.164,1207280000.0
926.189,1207950000.0
926.214,1208620000.0
926.22,1208780000.0
926.226,1208950000.0
926.232,1209110000.0
926.238,1209270000.0
926.263,1209950000.0
926.287,1210600000.0
926.337,1211980000.0
926.385,1216570000.0
926.433,1232290000.0
926.481,1257750000.0
926.532,1290140000.0
926.632,1358330000.0
926.732,1419710000.0
926.832,1469910000.0
926.873,1487610000.0
926.955,1517940000.0
927.119,1563750000.0
927.263,1593040000.0
927.407,1616260000.0
927.694,1652080000.0
927.875,1670580000.0
928.238,1702060000.0
928.487,1720590000.0
928.986,1749930000.0
929.097,1754370000.0
929.32,1759210000.0
929.513,1756650000.0
929.706,1743030000.0
929.899,1709810000.0
930.092,1643080000.0
930.098,1640430000.0
930.148,1615200000.0
930.248,1554160000.0
930.348,1481770000.0
930.448,1405980000.0
930.491,1377200000.0
930.534,1353310000.0
930.577,1337840000.0
930.589,1335600000.0
930.639,1333550000.0
930.687,1334960000.0
930.711,1335660000.0
930.736,1336400000.0
930.742,1336580000.0
930.748,1336760000.0
930.754,1336930000.0
930.76,1337110000.0
930.785,1337850000.0
930.809,1338560000.0
930.859,1340060000.0
930.907,1345020000.0
930.955,1362540000.0
931.003,1391690000.0
931.005,1393150000.0
931.055,1430840000.0
931.155,1515980000.0
931.255,1599470000.0
931.326,1653950000.0
931.398,1701920000.0
931.47,1743600000.0
931.541,1779640000.0
931.684,1837870000.0
931.79,1871400000.0
931.896,1899680000.0
932.107,1945120000.0
932.319,1979760000.0
932.531,2008430000.0
932.954,2055690000.0
933.033,2063530000.0
933.191,2078640000.0
933.506,2106980000.0
934.137,2158950000.0
934.276,2169690000.0
934.554,2190340000.0
935.11,2227250000.0
935.514,2248030000.0
935.918,2258150000.0
936.322,2244850000.0
936.538,2218980000.0
936.753,2168710000.0
936.852,2133700000.0
936.951,2089910000.0
937.049,2035100000.0
937.148,1967010000.0
937.247,1885220000.0
937.346,1792260000.0
937.543,1609230000.0
937.594,1576330000.0
937.642,1559040000.0
937.692,1556530000.0
937.741,1558180000.0
937.766,1559020000.0
937.791,1559870000.0
937.797,1560070000.0
937.803,1560280000.0
937.809,1560480000.0
937.815,1560680000.0
937.84,1561530000.0
937.865,1562380000.0
937.915,1564100000.0
937.964,1569990000.0
938.013,1591360000.0
938.062,1626790000.0
938.111,1670660000.0
938.16,1720880000.0
938.258,1826790000.0
938.454,2025890000.0
938.458,2029420000.0
938.508,2072830000.0
938.608,2150320000.0
938.708,2216120000.0
938.808,2273330000.0
938.853,2296070000.0
938.943,2337310000.0
939.124,2404700000.0
939.304,2457530000.0
939.484,2500540000.0
939.845,2566210000.0
940.206,2617730000.0
940.434,2646130000.0
940.89,2696940000.0
941.801,2786300000.0
942.015,2806180000.0
942.443,2845320000.0
942.894,2885710000.0
943.773,2962970000.0
944.625,3035510000.0
945.478,3104210000.0
946.279,3159970000.0
947.079,3193420000.0
947.479,3190900000.0
947.879,3161450000.0
948.08,3129370000.0
948.28,3079240000.0
948.48,3005870000.0
948.68,2900140000.0
948.88,2753080000.0
949.08,2557370000.0
949.28,2311180000.0
949.48,2074980000.0
949.53,2035150000.0
949.58,2012880000.0
949.63,2010310000.0
949.68,2012430000.0
949.705,2013490000.0
949.73,2014550000.0
949.737,2014850000.0
949.743,2015100000.0
949.749,2015360000.0
949.755,2015620000.0
949.781,2016720000.0
949.806,2017790000.0
949.856,2019930000.0
949.906,2026800000.0
949.956,2053530000.0
950.006,2098010000.0
950.056,2153790000.0
950.106,2218130000.0
950.206,2356880000.0
950.406,2631030000.0
950.456,2692970000.0
950.556,2806710000.0
950.656,2909000000.0
950.756,3000340000.0
950.806,3042160000.0
950.906,3118790000.0
951.107,3247320000.0
951.307,3350020000.0
951.508,3432690000.0
951.708,3500430000.0
952.109,3609060000.0
952.407,3673160000.0
953.003,3777770000.0
953.599,3864330000.0
954.008,3918460000.0
954.825,4019410000.0
955.609,4111640000.0
957.177,4292460000.0
957.211,4296410000.0
957.28,4304310000.0
957.418,4320110000.0
957.694,4351770000.0
958.246,4415350000.0
958.812,4481020000.0
959.945,4613620000.0
960.413,4668980000.0
960.776,4712750000.0
961.14,4756360000.0
961.376,4784790000.0
961.611,4813200000.0
962.081,4870260000.0
963.021,4985560000.0
963.251,5013970000.0
963.71,5071160000.0
964.629,5187040000.0
964.89,5220330000.0
965.412,5287350000.0
966.456,5422930000.0
966.53,5432620000.0
966.678,5452060000.0
966.975,5491040000.0
967.567,5569300000.0
968.169,5649210000.0
969.372,5809820000.0
969.809,5868070000.0
970.683,5984330000.0
971.448,6074540000.0
971.858,6091220000.0
972.268,6083060000.0
972.318,6080640000.0
972.37,6078180000.0
972.473,6073590000.0
972.499,6072480000.0
972.524,6071460000.0
972.531,6071160000.0
972.537,6070910000.0
972.543,6070670000.0
972.55,6070390000.0
972.575,6069390000.0
972.601,6068380000.0
972.653,6066410000.0
972.703,6068830000.0
972.803,6075090000.0
972.806,6075280000.0
972.856,6078350000.0
972.956,6084540000.0
973.156,6096950000.0
973.216,6100680000.0
973.336,6110260000.0
973.576,6156930000.0
973.626,6166730000.0
973.726,6186390000.0
973.926,6225960000.0
974.326,6316090000.0
975.126,6500200000.0
975.265,6532460000.0
975.544,6591300000.0
976.101,6705190000.0
976.905,6855370000.0
978.512,7155480000.0
978.544,7161350000.0
978.608,7173100000.0
978.735,7196180000.0
978.989,7241940000.0
979.498,7334530000.0
980.184,7461000000.0
981.556,7706780000.0
981.823,7753820000.0
982.357,7848450000.0
983.424,8039970000.0
983.463,8046940000.0
983.54,8060930000.0
983.694,8088960000.0
984.003,8145300000.0
984.62,8259140000.0
985.102,8348840000.0
986.065,8530530000.0
986.742,8660160000.0
988.095,8924560000.0
988.381,8980940000.0
988.953,9094770000.0
990.021,9310710000.0
991.66,9648820000.0
993.3,10001300000.0
996.58,10738200000.0
996.65,10754500000.0
996.79,10787100000.0
997.07,10852700000.0
997.63,10985300000.0
998.75,11254700000.0
1000.0,11561100000.0
1001.912,12038400000.0
1003.824,12531700000.0
1005.553,12991000000.0
1007.282,13462600000.0
1009.011,13945300000.0
1010.74,14436300000.0
1012.469,14927800000.0
1014.199,15412600000.0
1015.928,15870500000.0
1017.657,16257300000.0
1019.386,16479900000.0
1020.25,16465800000.0
1021.115,16311400000.0
1021.979,15962200000.0
1022.844,15345800000.0
1023.276,14917500000.0
1023.708,14368800000.0
1024.141,13664200000.0
1024.573,12736600000.0
1024.624,12599400000.0
1024.674,12463700000.0
1024.724,12323200000.0
1024.774,12177200000.0
1024.824,12026800000.0
1024.874,11868200000.0
1024.924,11702500000.0
1024.974,11526400000.0
1025.006,11412000000.0
1025.069,11172600000.0
1025.196,10610200000.0
1025.259,10285800000.0
1025.322,9946240000.0
1025.438,9319640000.0
1025.492,9066950000.0
1025.546,8873570000.0
1025.596,8778770000.0
1025.646,8765810000.0
1025.654,8766890000.0
1025.681,8771080000.0
1025.708,8775280000.0
1025.715,8776370000.0
1025.72,8777150000.0
1025.722,8777470000.0
1025.729,8778550000.0
1025.736,8779640000.0
1025.763,8783850000.0
1025.79,8788070000.0
1025.844,8802370000.0
1025.898,8885400000.0
1025.925,8966490000.0
1025.952,9069650000.0
1026.005,9327970000.0
1026.056,9610790000.0
1026.106,9902730000.0
1026.156,10200900000.0
1026.206,10491500000.0
1026.256,10773500000.0
1026.306,11038400000.0
1026.356,11286200000.0
1026.406,11516100000.0
1026.438,11653400000.0
1026.501,11905900000.0
1026.628,12386500000.0
1026.87,13185600000.0
1027.112,13872400000.0
1027.355,14471500000.0
1027.597,15029800000.0
1027.839,15502200000.0
1028.082,15966200000.0
1028.566,16792800000.0
1028.6,16842600000.0
1028.668,16942400000.0
1028.803,17143900000.0
1029.073,17537400000.0
1029.614,18234900000.0
1030.329,19058500000.0
1031.044,19833300000.0
1032.058,20806100000.0
1033.072,21582600000.0
1033.787,22069100000.0
1035.216,22896600000.0
1035.516,23077500000.0
1036.116,23455000000.0
1037.246,24198200000.0
1038.975,25232100000.0
1040.704,26170600000.0
1042.433,27106800000.0
1044.162,28052900000.0
1045.892,29025300000.0
1047.621,30015300000.0
1048.81,30708800000.0
1050.0,31418900000.0
1052.38,32859400000.0
1055.0,34500700000.0
1057.62,36201900000.0
1060.0,37819400000.0
1064.76,41344900000.0
1065.0,41528000000.0
1065.48,41894900000.0
1066.441,42636000000.0
1068.363,44145100000.0
1070.0,45447800000.0
1073.273,48148300000.0
1075.0,49616400000.0
1078.453,52722700000.0
1080.0,54207600000.0
1081.538,55718000000.0
1083.077,57253100000.0
1086.155,60401800000.0
1086.538,60802600000.0
1087.304,61607100000.0
1088.835,63240800000.0
1090.0,64507700000.0
1092.33,67106000000.0
1095.0,70193400000.0
1097.67,73388900000.0
1100.0,76279100000.0
1104.661,82344600000.0
1105.0,82799300000.0
1105.679,83714600000.0
1107.036,85571900000.0
1109.751,89384800000.0
1110.0,89741500000.0
1110.498,90457300000.0
1111.494,91901800000.0
1113.486,94841500000.0
1115.0,97113400000.0
1118.027,101774000000.0
1120.0,104887000000.0
1123.945,111220000000.0
1125.0,112924000000.0
1127.109,116311000000.0
1130.0,120900000000.0
1131.154,122716000000.0
1132.308,124480000000.0
1134.616,127872000000.0
1136.154,129955000000.0
1139.23,133768000000.0
1140.0,134582000000.0
1141.539,136171000000.0
1144.617,138810000000.0
1145.0,139116000000.0
1145.766,139534000000.0
1147.297,140416000000.0
1150.0,141526000000.0
1152.703,142204000000.0
1155.406,142286000000.0
1158.109,141869000000.0
1160.812,141421000000.0
1163.516,140842000000.0
1165.769,140655000000.0
1170.276,141332000000.0
1172.529,142216000000.0
1174.783,143476000000.0
1179.29,147083000000.0
1181.538,149476000000.0
1185.628,154779000000.0
1189.718,160820000000.0
1191.767,163694000000.0
1193.816,166228000000.0
1195.866,168377000000.0
1197.915,170209000000.0
1199.964,171928000000.0
1202.014,173426000000.0
1204.063,174274000000.0
1206.113,173667000000.0
1207.137,172448000000.0
1208.162,170524000000.0
1208.212,170422000000.0
1208.262,170323000000.0
1208.312,170226000000.0
1208.362,170132000000.0
1208.412,170041000000.0
1208.462,169953000000.0
1208.512,169854000000.0
1208.562,169715000000.0
1208.612,169580000000.0
1208.662,169450000000.0
1208.713,169323000000.0
1208.763,169198000000.0
1208.813,169077000000.0
1208.863,168959000000.0
1208.913,168845000000.0
1208.963,168734000000.0
1209.013,168598000000.0
1209.063,168401000000.0
1209.113,168210000000.0
1209.163,168023000000.0
1209.213,167841000000.0
1209.263,167665000000.0
1209.313,167494000000.0
1209.363,167327000000.0
1209.413,167166000000.0
1209.463,167009000000.0
1209.513,166842000000.0
1209.563,166643000000.0
1209.613,166449000000.0
1209.663,166260000000.0
1209.714,166078000000.0
1209.764,165908000000.0
1209.814,165743000000.0
1209.864,165583000000.0
1209.914,165429000000.0
1209.964,165280000000.0
1210.014,165127000000.0
1210.064,164959000000.0
1210.114,164791000000.0
1210.164,164629000000.0
1210.211,164480000000.0
1210.305,164194000000.0
1210.494,163664000000.0
1210.871,162010000000.0
1211.625,158513000000.0
1212.261,155806000000.0
1213.534,151195000000.0
1214.31,149591000000.0
1214.822,148933000000.0
1215.078,147965000000.0
1215.335,144668000000.0
1215.463,141686000000.0
1215.527,140839000000.0
1215.591,140806000000.0
1215.623,140860000000.0
1215.655,140914000000.0
1215.663,140928000000.0
1215.67,140939000000.0
1215.679,140955000000.0
1215.687,140968000000.0
1215.719,141022000000.0
1215.751,141076000000.0
1215.815,141345000000.0
1215.879,142498000000.0
1215.943,144396000000.0
1216.007,146440000000.0
1216.135,150109000000.0
1216.262,153074000000.0
1216.39,155648000000.0
1216.52,158106000000.0
1216.78,162137000000.0
1217.032,166429000000.0
1217.536,174735000000.0
1218.544,190765000000.0
1219.081,197756000000.0
1219.618,205286000000.0
1220.156,211626000000.0
1220.693,216714000000.0
1221.131,221145000000.0
1222.007,227762000000.0
1222.882,233749000000.0
1223.18,236274000000.0
1223.775,240993000000.0
1224.966,248875000000.0
1225.229,250245000000.0
1225.756,252742000000.0
1226.809,256835000000.0
1227.279,258496000000.0
1228.219,261960000000.0
1229.328,266303000000.0
1231.378,274775000000.0
1233.427,283259000000.0
1235.476,291517000000.0
1237.526,299568000000.0
1239.575,307254000000.0
1241.625,314958000000.0
1245.725,331111000000.0
1249.825,348166000000.0
1250.812,352099000000.0
1252.786,360796000000.0
1256.733,378295000000.0
1260.0,394289000000.0
1263.267,412254000000.0
1265.0,421675000000.0
1268.466,439582000000.0
1270.0,448301000000.0
1273.068,465885000000.0
1275.0,476674000000.0
1278.863,501482000000.0
1280.0,508650000000.0
1282.273,522626000000.0
1285.0,537935000000.0
1287.727,554193000000.0
1290.0,568257000000.0
1294.547,598931000000.0
1295.0,602197000000.0
1295.906,608792000000.0
1297.719,621844000000.0
1300.0,637973000000.0
1305.0,671780000000.0
1310.0,706997000000.0
1315.0,744070000000.0
1320.0,782875000000.0
1325.0,823664000000.0
1330.0,866835000000.0
1335.0,911906000000.0
1340.0,957980000000.0
1345.0,1005140000000.0
1350.0,1054330000000.0
1355.0,1106390000000.0
1360.0,1159560000000.0
1365.0,1214930000000.0
1370.0,1273010000000.0
1374.231,1323050000000.0
1378.462,1374350000000.0
1379.231,1383890000000.0
1380.0,1393480000000.0
1381.538,1412860000000.0
1384.614,1452310000000.0
1385.0,1457310000000.0
1385.771,1467350000000.0
1387.314,1487580000000.0
1390.0,1523270000000.0
1395.0,1591620000000.0
1400.0,1662530000000.0
1405.0,1736270000000.0
1410.0,1813290000000.0
1415.0,1892960000000.0
1420.0,1974640000000.0
1425.0,2059110000000.0
1430.0,2146520000000.0
1435.0,2235590000000.0
1440.0,2325570000000.0
1445.0,2417350000000.0
1450.0,2511580000000.0
1455.0,2608130000000.0
1460.0,2707660000000.0
1465.0,2810110000000.0
1470.0,2918390000000.0
1473.462,2996660000000.0
1476.923,3077650000000.0
1478.462,3114620000000.0
1480.0,3152290000000.0
1483.076,3229700000000.0
1485.0,3279540000000.0
1488.848,3381920000000.0
1490.0,3413040000000.0
1492.304,3475590000000.0
1495.0,3548570000000.0
1500.0,3682350000000.0
1505.0,3816170000000.0
1510.0,3956480000000.0
1515.0,4107940000000.0
1520.0,4267040000000.0
1525.0,4420900000000.0
1530.0,4556440000000.0
1535.0,4673760000000.0
1540.0,4786500000000.0
1545.0,4909370000000.0
1550.0,5049530000000.0
1555.0,5205980000000.0
1560.0,5370830000000.0
1565.0,5532890000000.0
1570.0,5684130000000.0
1572.692,5761050000000.0
1575.385,5835820000000.0
1577.692,5899660000000.0
1580.0,5964290000000.0
1584.616,6099600000000.0
1585.0,6111520000000.0
1585.768,6135440000000.0
1587.304,6184480000000.0
1590.0,6274870000000.0
1595.0,6459760000000.0
1600.0,6669610000000.0
1605.0,6907300000000.0
1610.0,7175500000000.0
1615.0,7477370000000.0
1620.0,7815960000000.0
1625.0,8194310000000.0
1630.0,8615910000000.0
1635.0,9084020000000.0
1640.0,9602410000000.0
1645.0,10175800000000.0
1650.0,10810700000000.0
1655.0,11511500000000.0
1660.0,12302100000000.0
1665.0,13213500000000.0
1667.5,13722300000000.0
1670.0,14306400000000.0
1671.923,14779900000000.0
1673.846,15302300000000.0
1676.923,16286600000000.0
1680.0,17433200000000.0
1683.077,18751500000000.0
1685.0,19755500000000.0
1686.923,20833000000000.0
1688.461,21808200000000.0
1690.0,22916900000000.0
1691.539,24055000000000.0
1693.077,25281600000000.0
1694.616,26725100000000.0
1695.0,27119700000000.0
1695.769,27905500000000.0
1697.306,29447600000000.0
1698.653,30987200000000.0
1700.0,32761400000000.0
1702.694,36463700000000.0
1703.847,38248200000000.0
1705.0,40228400000000.0
1707.306,44200200000000.0
1708.653,46808300000000.0
1710.0,49754700000000.0
1712.694,55665100000000.0
1713.847,58497300000000.0
1715.0,61602900000000.0
1717.306,67751300000000.0
1718.653,71643200000000.0
1720.0,75922400000000.0
1722.694,84263800000000.0
1725.0,92292300000000.0
1727.306,100294000000000.0
1730.0,110610000000000.0
1732.694,120808000000000.0
1735.0,130323000000000.0
1737.306,139546000000000.0
1740.0,151062000000000.0
1745.0,172238000000000.0
1750.0,193344000000000.0
1760.0,234140000000000.0
1761.154,238593000000000.0
1763.462,247176000000000.0
1768.078,264104000000000.0
1772.308,278859000000000.0
1780.767,306265000000000.0
1789.226,330770000000000.0
1797.686,353229000000000.0
1806.145,374023000000000.0
1821.539,408437000000000.0
1836.933,439984000000000.0
1852.327,469708000000000.0
1867.721,498289000000000.0
1870.769,503866000000000.0
1876.865,514885000000000.0
1889.057,536649000000000.0
1901.249,558034000000000.0
1913.441,579050000000000.0
1920.0,590244000000000.0
1933.119,612374000000000.0
1946.237,634199000000000.0
1959.356,655628000000000.0
1969.231,671519000000000.0
1988.981,702623000000000.0
2008.731,732583000000000.0
2018.462,747152000000000.0
2037.924,775585000000000.0
2057.386,803646000000000.0
2067.692,818399000000000.0
2077.998,833101000000000.0
2088.303,847658000000000.0
2098.609,862182000000000.0
2108.915,876394000000000.0
2116.923,887384000000000.0
2132.94,908640000000000.0
2148.957,929070000000000.0
2164.974,948533000000000.0
2166.154,949894000000000.0
2168.513,952604000000000.0
2173.232,958016000000000.0
2182.67,968638000000000.0
2201.545,988585000000000.0
2215.385,1002510000000000.0
2229.225,1016220000000000.0
2243.066,1029800000000000.0
2256.906,1043410000000000.0
2264.615,1051040000000000.0
2280.033,1066280000000000.0
2295.451,1081910000000000.0
2310.869,1097990000000000.0
2313.846,1101120000000000.0
2319.8,1107360000000000.0
2331.708,1120530000000000.0
2343.616,1133830000000000.0
2355.525,1147540000000000.0
2363.077,1156240000000000.0
2378.181,1173730000000000.0
2393.286,1190830000000000.0
2408.39,1207280000000000.0
2412.307,1211410000000000.0
2420.14,1219620000000000.0
2435.806,1234750000000000.0
2451.472,1248780000000000.0
2461.538,1257360000000000.0
2471.604,1265200000000000.0
2481.67,1272870000000000.0
2491.737,1279950000000000.0
2501.803,1286870000000000.0
2510.769,1292620000000000.0
2528.702,1303600000000000.0
2546.634,1313830000000000.0
2560.0,1321070000000000.0
2573.366,1327900000000000.0
2586.731,1334480000000000.0
