Wavelength,Flux
900.0,7990150.0
903.442,8817130.0
904.998,9216060.0
906.554,9631440.0
908.11,10063900.0
909.667,10514300.0
910.703,10824100.0
911.74,11142600.0
911.84,11173700.0
912.0,11223700.0
912.31,11321200.0
912.779,11470200.0
913.717,11773500.0
914.335,12057300.0
914.644,12290300.0
914.953,12573900.0
915.141,12456900.0
915.329,12312000.0
915.376,12328000.0
915.423,12344100.0
915.47,12424500.0
915.517,12632000.0
915.567,12793400.0
915.617,12764600.0
915.667,12561700.0
915.717,12446100.0
915.767,12462100.0
915.824,12481700.0
915.892,12505300.0
915.926,12517400.0
915.96,12593100.0
915.994,12820400.0
916.028,13142200.0
916.078,13538000.0
916.128,13715600.0
916.178,13638500.0
916.228,13264800.0
916.278,12793700.0
916.328,12657200.0
916.378,12674400.0
916.428,12691900.0
916.479,12709700.0
916.529,12727500.0
916.579,12918500.0
916.629,13647400.0
916.679,14538100.0
916.729,15248900.0
916.779,15707700.0
916.829,15839300.0
916.879,15583000.0
916.929,14944100.0
916.979,13956200.0
917.029,13110600.0
917.079,12922200.0
917.129,12939600.0
917.179,12957500.0
917.181,12958300.0
917.231,12976200.0
917.281,12994200.0
917.331,13206200.0
917.381,14204400.0
917.431,15640700.0
917.448,16117300.0
917.498,17407800.0
917.548,18471800.0
917.598,19216500.0
917.648,19582200.0
917.698,19563300.0
917.748,19124900.0
917.798,18223200.0
917.848,16943200.0
917.898,15427900.0
917.948,13957500.0
917.998,13295300.0
918.048,13271300.0
918.129,13301000.0
918.21,13330700.0
918.251,13358300.0
918.291,13717600.0
918.332,14757000.0
918.373,16201300.0
918.454,19214400.0
918.494,20671900.0
918.535,21952700.0
918.576,23078100.0
918.616,23985700.0
918.657,24699400.0
918.697,25181300.0
918.738,25414200.0
918.778,25397000.0
918.819,25117900.0
918.86,24554400.0
918.9,23733500.0
918.941,22639200.0
918.972,21640300.0
919.004,20525800.0
919.036,19312400.0
919.067,18068100.0
919.13,15713600.0
919.162,14631100.0
919.194,13955600.0
919.225,13725700.0
919.257,13719400.0
919.32,13743300.0
919.351,13754900.0
919.413,13778200.0
919.443,13789800.0
919.474,13814100.0
919.505,14035100.0
919.536,14673700.0
919.567,15757900.0
919.598,16943800.0
919.628,18208500.0
919.659,19566300.0
919.721,22354700.0
919.844,27718200.0
919.906,29981100.0
919.967,31929900.0
920.029,33453100.0
920.091,34475800.0
920.152,34961000.0
920.214,34907400.0
920.276,34269600.0
920.337,33025500.0
920.399,31185700.0
920.461,28926800.0
920.51,26784800.0
920.56,24539900.0
920.659,19928200.0
920.709,17770200.0
920.759,15789400.0
920.808,14523900.0
920.858,14334400.0
920.908,14353700.0
920.957,14373100.0
920.963,14375300.0
921.013,14395000.0
921.063,14414600.0
921.113,14589200.0
921.163,15805700.0
921.213,17865400.0
921.263,20152000.0
921.313,22643600.0
921.413,27896900.0
921.513,33281600.0
921.613,38401200.0
921.713,42932600.0
921.763,44791300.0
921.813,46387700.0
921.863,47831000.0
921.913,48926600.0
921.963,49727600.0
922.013,50245100.0
922.063,50477200.0
922.113,50418200.0
922.117,50399700.0
922.167,50016200.0
922.217,49324500.0
922.267,48304300.0
922.317,46902000.0
922.367,45311600.0
922.417,43403300.0
922.467,41153800.0
922.506,39273100.0
922.584,35253800.0
922.662,30975900.0
922.74,26685000.0
922.818,22607800.0
922.895,18874800.0
922.943,16795900.0
922.992,15423400.0
923.042,15213400.0
923.089,15232600.0
923.114,15243000.0
923.138,15252900.0
923.144,15255400.0
923.15,15257900.0
923.156,15260400.0
923.162,15262900.0
923.187,15273300.0
923.211,15283200.0
923.261,15304400.0
923.308,15555600.0
923.358,17047200.0
923.405,19146800.0
923.455,21601500.0
923.505,24296000.0
923.555,27123900.0
923.605,30098800.0
923.655,33124300.0
923.755,39352500.0
923.794,41789100.0
923.872,46518900.0
923.95,50897300.0
924.028,54832800.0
924.106,58374800.0
924.183,61400600.0
924.26,64105100.0
924.338,66420500.0
924.436,68751200.0
924.534,70419800.0
924.633,71446000.0
924.688,71707400.0
924.798,71547600.0
924.853,71117200.0
924.908,70455300.0
924.939,70011500.0
925.0,68910000.0
925.061,67501100.0
925.122,65787400.0
925.189,63581200.0
925.256,61141600.0
925.322,58312300.0
925.389,55070400.0
925.455,51491300.0
925.522,47672100.0
925.579,44078100.0
925.636,40415100.0
925.751,33084700.0
925.806,29648400.0
925.86,26385800.0
925.915,23302500.0
925.97,20488500.0
926.02,18158600.0
926.067,16731500.0
926.117,16534500.0
926.165,16555800.0
926.189,16566500.0
926.214,16577700.0
926.22,16580300.0
926.226,16583000.0
926.232,16585700.0
926.238,16588400.0
926.263,16599600.0
926.287,16610300.0
926.337,16633000.0
926.385,16875600.0
926.435,18500300.0
926.482,20771500.0
926.532,23427900.0
926.582,26355000.0
926.632,29443400.0
926.682,32714300.0
926.732,36063300.0
926.832,43063000.0
926.873,45982700.0
926.955,51675800.0
927.037,57078100.0
927.119,62120800.0
927.191,66098200.0
927.263,69920800.0
927.407,76822700.0
927.478,79917700.0
927.55,82738200.0
927.694,87595700.0
927.837,91778300.0
927.875,92737200.0
927.951,94490100.0
928.102,97305600.0
928.253,99347400.0
928.404,100610000.0
928.487,100975000.0
928.653,100997000.0
928.819,100033000.0
928.902,99170100.0
928.985,98057600.0
929.097,96060000.0
929.209,93493200.0
929.32,90381200.0
929.432,86731600.0
929.543,82357300.0
929.655,77216600.0
929.706,74652800.0
929.808,69099200.0
929.859,66130900.0
929.911,62869300.0
930.013,55977400.0
930.098,49798400.0
930.183,43488000.0
930.268,37277800.0
930.353,31368900.0
930.422,26953100.0
930.491,22974900.0
930.54,20454700.0
930.589,18828800.0
930.638,18667400.0
930.687,18691700.0
930.711,18703800.0
930.736,18716300.0
930.742,18719300.0
930.748,18722200.0
930.754,18725300.0
930.76,18728300.0
930.785,18740700.0
930.809,18752800.0
930.859,18777900.0
930.907,18989200.0
930.957,20738100.0
931.005,23293800.0
931.055,26230500.0
931.105,29471200.0
931.155,32897100.0
931.205,36529200.0
931.255,40275000.0
931.355,48140500.0
931.398,51609000.0
931.484,58397800.0
931.57,64879200.0
931.657,70968100.0
931.723,75258400.0
931.79,79526800.0
931.923,87365000.0
932.057,94309200.0
932.19,100436000.0
932.324,106021000.0
932.457,110876000.0
932.591,115406000.0
932.724,119545000.0
932.857,123211000.0
933.033,127400000.0
933.209,130933000.0
933.384,133944000.0
933.56,136450000.0
933.736,138518000.0
934.087,141477000.0
934.276,142431000.0
934.654,142939000.0
934.843,142477000.0
935.032,141483000.0
935.221,139882000.0
935.41,137671000.0
935.514,136070000.0
935.722,132029000.0
935.929,126729000.0
936.033,123525000.0
936.137,120107000.0
936.241,116364000.0
936.345,112058000.0
936.448,107328000.0
936.552,102076000.0
936.653,96342900.0
936.753,90058000.0
936.853,83210800.0
936.954,75756600.0
937.051,67834500.0
937.148,59433100.0
937.342,42546200.0
937.393,38442200.0
937.443,34559300.0
937.494,30875200.0
937.544,27523600.0
937.594,24519700.0
937.642,22652500.0
937.692,22500300.0
937.741,22529200.0
937.766,22544000.0
937.791,22558800.0
937.797,22562400.0
937.803,22565900.0
937.809,22569500.0
937.815,22573000.0
937.84,22587900.0
937.865,22602700.0
937.915,22632400.0
937.964,22845600.0
938.014,24922300.0
938.062,27901100.0
938.112,31343300.0
938.162,35141300.0
938.212,39157000.0
938.262,43406900.0
938.312,47816000.0
938.412,57076100.0
938.458,61465800.0
938.55,70065000.0
938.642,78276200.0
938.734,85974000.0
938.853,95099700.0
938.972,103599000.0
939.09,111304000.0
939.209,118198000.0
939.327,124694000.0
939.446,130516000.0
939.564,135970000.0
939.801,145878000.0
939.92,150190000.0
940.038,154120000.0
940.275,161039000.0
940.434,165116000.0
940.751,172067000.0
941.069,178558000.0
941.386,184183000.0
941.703,189046000.0
942.015,193186000.0
942.639,200059000.0
942.894,202398000.0
943.404,206589000.0
943.773,208692000.0
944.511,211169000.0
944.625,211326000.0
944.853,211430000.0
945.31,210864000.0
945.478,210343000.0
945.814,208762000.0
946.149,206240000.0
946.485,202569000.0
946.782,198436000.0
947.079,193478000.0
947.376,186627000.0
947.673,177396000.0
947.97,164848000.0
948.267,149263000.0
948.37,142773000.0
948.473,135662000.0
948.577,127693000.0
948.68,119105000.0
948.783,109809000.0
948.887,99633400.0
948.983,89315200.0
949.08,78362400.0
949.273,56705800.0
949.325,51340200.0
949.377,46237400.0
949.428,41401200.0
949.48,37030500.0
949.505,35137200.0
949.53,33261600.0
949.555,31549500.0
949.58,30777000.0
949.63,30649700.0
949.68,30688800.0
949.705,30708400.0
949.73,30728000.0
949.737,30733500.0
949.743,30738200.0
949.749,30743000.0
949.755,30747600.0
949.781,30768000.0
949.806,30787700.0
949.856,30827100.0
949.906,31035000.0
949.956,33629300.0
950.006,37526500.0
950.056,41914200.0
950.106,46759700.0
950.156,51906800.0
950.206,57295800.0
950.256,62977300.0
950.306,68828900.0
950.406,80941100.0
950.456,87153700.0
950.556,98995900.0
950.656,110161000.0
950.756,120313000.0
950.806,125390000.0
950.906,134806000.0
951.006,143715000.0
951.107,151838000.0
951.207,159355000.0
951.407,172932000.0
951.608,185039000.0
951.808,195848000.0
952.009,205134000.0
952.209,213224000.0
952.407,220306000.0
952.803,232291000.0
953.198,243359000.0
953.594,252791000.0
953.99,261139000.0
954.008,261499000.0
954.058,262506000.0
954.158,264479000.0
954.358,268213000.0
954.558,271736000.0
954.758,275083000.0
954.958,278398000.0
955.158,281737000.0
955.358,285063000.0
955.558,288354000.0
955.609,289192000.0
955.711,290871000.0
955.915,294218000.0
956.323,301543000.0
957.138,316371000.0
957.211,317765000.0
957.357,320584000.0
957.649,326356000.0
958.234,338448000.0
958.812,351205000.0
959.968,379575000.0
960.413,391394000.0
960.594,396362000.0
960.776,407512000.0
960.867,410252000.0
960.958,413010000.0
961.048,415788000.0
961.139,418591000.0
961.19,420178000.0
961.29,423313000.0
961.376,426032000.0
961.548,431529000.0
961.611,433557000.0
961.737,437641000.0
961.989,445917000.0
962.494,462826000.0
963.251,488858000.0
964.766,539277000.0
964.89,542843000.0
965.139,549734000.0
965.637,562179000.0
966.084,571509000.0
966.53,575787000.0
966.977,577018000.0
967.423,575092000.0
967.796,566702000.0
968.169,557357000.0
968.542,545781000.0
968.915,530968000.0
969.661,502838000.0
969.809,498280000.0
970.105,489478000.0
970.697,473051000.0
970.885,467209000.0
971.073,462578000.0
971.167,460617000.0
971.26,458867000.0
971.307,458062000.0
971.354,454430000.0
971.401,445885000.0
971.448,439317000.0
971.542,429901000.0
971.635,423539000.0
971.729,418960000.0
971.858,414143000.0
972.115,404123000.0
972.268,397595000.0
972.37,393711000.0
972.473,390218000.0
972.499,389388000.0
972.524,388608000.0
972.531,388391000.0
972.537,388208000.0
972.543,388023000.0
972.55,387812000.0
972.575,387065000.0
972.601,386324000.0
972.653,384872000.0
972.703,384391000.0
972.803,383735000.0
972.806,383715000.0
972.856,383395000.0
972.956,382767000.0
973.156,381604000.0
973.216,381278000.0
973.336,381045000.0
973.456,383417000.0
973.576,385820000.0
973.626,386829000.0
973.726,388892000.0
973.926,393097000.0
974.326,403687000.0
974.726,415516000.0
975.265,431333000.0
976.344,458826000.0
976.905,472582000.0
977.466,488551000.0
978.028,510554000.0
978.544,531736000.0
979.06,556040000.0
979.576,589655000.0
979.88,618535000.0
980.184,652644000.0
980.488,694980000.0
980.792,742721000.0
981.096,781407000.0
981.399,825774000.0
981.611,844644000.0
981.823,865053000.0
982.247,905261000.0
983.094,978313000.0
983.463,1007830000.0
984.202,1072980000.0
984.571,1113290000.0
984.94,1151180000.0
985.102,1166590000.0
985.426,1198640000.0
985.75,1223700000.0
986.074,1249610000.0
986.721,1308420000.0
986.742,1310370000.0
986.792,1314790000.0
986.892,1322970000.0
987.092,1339550000.0
987.292,1356450000.0
987.492,1369810000.0
987.592,1369330000.0
987.692,1368850000.0
987.792,1368370000.0
987.842,1440680000.0
987.892,1440020000.0
987.942,1439360000.0
987.992,1438700000.0
988.042,1438180000.0
988.142,1437160000.0
988.342,1433590000.0
988.381,1432900000.0
988.459,1431530000.0
988.616,1428900000.0
988.929,1432690000.0
989.085,1442780000.0
989.242,1452740000.0
989.555,1469960000.0
989.788,1472550000.0
990.021,1475080000.0
990.254,1471910000.0
990.487,1454500000.0
990.954,1425280000.0
991.307,1416740000.0
991.66,1415900000.0
991.71,1418730000.0
991.81,1424430000.0
992.01,1435860000.0
992.21,1447150000.0
992.41,1468430000.0
992.61,1492250000.0
992.81,1516310000.0
993.01,1545310000.0
993.21,1583540000.0
993.3,1601510000.0
993.48,1638950000.0
993.84,1721310000.0
994.56,1881430000.0
994.739,1905980000.0
994.919,1931020000.0
995.099,1944040000.0
995.279,1941530000.0
995.459,1938950000.0
995.639,1936620000.0
995.819,1939180000.0
995.999,1944760000.0
996.359,1955360000.0
996.504,1975200000.0
996.65,2003530000.0
996.796,2032600000.0
996.941,2062480000.0
997.087,2092310000.0
997.233,2139250000.0
997.378,2190390000.0
997.524,2244490000.0
997.669,2302870000.0
997.815,2364310000.0
997.961,2425370000.0
998.106,2491290000.0
998.252,2561700000.0
998.398,2636520000.0
998.543,2706330000.0
998.689,2755560000.0
998.834,2806170000.0
998.98,2858270000.0
999.126,2907520000.0
999.271,2937430000.0
999.417,2951590000.0
999.563,2968350000.0
999.708,2988780000.0
999.745,3502850000.0
999.781,3508460000.0
999.817,3514020000.0
999.854,3519560000.0
999.89,3525010000.0
999.963,3519090000.0
1000.0,3516020000.0
1000.074,3512010000.0
1000.222,3503470000.0
1000.519,3482290000.0
1000.815,3409470000.0
1001.111,3330130000.0
1001.704,3157610000.0
1001.912,3103610000.0
1002.328,2997170000.0
1003.159,2777680000.0
1003.824,2608420000.0
1004.489,2449410000.0
1005.155,2304500000.0
1005.553,2223210000.0
1006.349,2074500000.0
1007.146,1940970000.0
1007.282,1920990000.0
1007.554,1881550000.0
1008.099,1801070000.0
1008.555,1740780000.0
1009.011,1685880000.0
1009.923,1586330000.0
1010.74,1507270000.0
1011.557,1438960000.0
1012.375,1379260000.0
1012.469,1373130000.0
1012.657,1360350000.0
1013.034,1336790000.0
1013.788,1294650000.0
1014.199,1273980000.0
1015.02,1238350000.0
1015.928,1205160000.0
1016.836,1179280000.0
1017.657,1161100000.0
1019.3,1135490000.0
1019.386,1134430000.0
1019.559,1132180000.0
1019.905,1127290000.0
1020.596,1116270000.0
1021.115,1103250000.0
1021.634,1084370000.0
1022.153,1057110000.0
1022.499,1033470000.0
1022.844,1005830000.0
1023.189,968955000.0
1023.535,921433000.0
1023.708,888039000.0
1023.88,853539000.0
1024.053,815121000.0
1024.226,765708000.0
1024.399,716754000.0
1024.571,658802000.0
1024.574,657803000.0
1024.624,639113000.0
1024.674,619693000.0
1024.724,600831000.0
1024.774,581620000.0
1024.824,561256000.0
1024.874,539731000.0
1024.924,517908000.0
1024.974,494128000.0
1025.006,479412000.0
1025.069,448824000.0
1025.132,415675000.0
1025.196,381584000.0
1025.322,310491000.0
1025.438,247291000.0
1025.465,233319000.0
1025.492,220405000.0
1025.519,208311000.0
1025.546,198122000.0
1025.596,185845000.0
1025.646,182369000.0
1025.654,182309000.0
1025.681,182361000.0
1025.708,182466000.0
1025.715,182493000.0
1025.72,182513000.0
1025.722,182521000.0
1025.729,182549000.0
1025.736,182576000.0
1025.763,182682000.0
1025.79,182791000.0
1025.844,184520000.0
1025.871,188113000.0
1025.898,194600000.0
1025.925,203736000.0
1025.952,214989000.0
1025.979,227901000.0
1026.005,241617000.0
1026.056,269317000.0
1026.106,297747000.0
1026.156,326917000.0
1026.206,356355000.0
1026.256,386006000.0
1026.306,415081000.0
1026.356,443432000.0
1026.406,471275000.0
1026.438,487732000.0
1026.501,518482000.0
1026.628,579016000.0
1026.749,630621000.0
1026.87,680118000.0
1026.92,699893000.0
1026.97,720028000.0
1027.02,739177000.0
1027.07,755749000.0
1027.12,772209000.0
1027.17,788274000.0
1027.22,803806000.0
1027.27,819164000.0
1027.32,835317000.0
1027.37,851265000.0
1027.421,867199000.0
1027.471,883006000.0
1027.521,897134000.0
1027.571,909012000.0
1027.621,920611000.0
1027.671,932691000.0
1027.721,944844000.0
1027.771,956760000.0
1027.821,968787000.0
1027.871,980691000.0
1027.921,992551000.0
1027.971,1004220000.0
1028.021,1015060000.0
1028.071,1024500000.0
1028.121,1033820000.0
1028.171,1043050000.0
1028.221,1052100000.0
1028.271,1060890000.0
1028.321,1069800000.0
1028.371,1078860000.0
1028.422,1087650000.0
1028.472,1096400000.0
1028.522,1104420000.0
1028.572,1111390000.0
1028.6,1115310000.0
1028.657,1123250000.0
1028.77,1138670000.0
1028.996,1168070000.0
1029.45,1220790000.0
1029.903,1267390000.0
1030.329,1305630000.0
1031.182,1377590000.0
1032.058,1445520000.0
1033.787,1573720000.0
1035.516,1697240000.0
1035.948,1740640000.0
1036.381,1794100000.0
1036.813,1864040000.0
1037.246,1949360000.0
1037.678,2044240000.0
1038.111,2142650000.0
1038.543,2250460000.0
1038.975,2370320000.0
1039.839,2584480000.0
1040.703,2799980000.0
1040.754,2814550000.0
1040.804,2829010000.0
1040.854,2843630000.0
1040.904,2858430000.0
1040.954,2873400000.0
1041.004,2888510000.0
1041.054,2903260000.0
1041.104,2918180000.0
1041.154,2933260000.0
1041.204,2948500000.0
1041.255,2963930000.0
1041.305,2979540000.0
1041.355,2995320000.0
1041.405,3011290000.0
1041.455,3027450000.0
1041.505,3043600000.0
1041.555,3058020000.0
1041.605,3072560000.0
1041.655,3087220000.0
1041.705,3102000000.0
1041.755,3116910000.0
1041.805,3131950000.0
1041.855,3147120000.0
1041.905,3162410000.0
1041.955,3177820000.0
1042.005,3193180000.0
1042.055,3207010000.0
1042.105,3220910000.0
1042.155,3234890000.0
1042.205,3248950000.0
1042.255,3263090000.0
1042.306,3277300000.0
1042.356,3291610000.0
1042.406,3306000000.0
1042.433,3313890000.0
1042.488,3329750000.0
1042.597,3361300000.0
1042.816,3425400000.0
1043.253,3561800000.0
1044.128,3869690000.0
1044.162,3882360000.0
1044.229,3907890000.0
1044.364,3959690000.0
1044.634,4066930000.0
1045.173,4301130000.0
1045.532,4477700000.0
1045.892,4676070000.0
1046.611,5092390000.0
1047.116,5362720000.0
1047.621,5599810000.0
1048.126,5841220000.0
1048.631,6138120000.0
1048.81,6264420000.0
1049.169,6536730000.0
1049.886,7112930000.0
1050.0,7204740000.0
1050.228,7342080000.0
1050.456,7481350000.0
1050.912,7687790000.0
1051.368,7861370000.0
1052.28,8175170000.0
1053.192,8419560000.0
1054.104,8583850000.0
1055.0,8829300000.0
1055.896,9074370000.0
1056.791,9002830000.0
1057.687,8751290000.0
1058.134,8685290000.0
1058.582,8710420000.0
1059.03,8839310000.0
1059.478,9077980000.0
1059.739,9273500000.0
1060.0,9481170000.0
1060.261,9743270000.0
1060.522,10023500000.0
1060.784,10369100000.0
1061.045,10750100000.0
1061.306,11217300000.0
1061.567,11747700000.0
1061.829,12395000000.0
1062.09,13146100000.0
1062.351,14051900000.0
1062.612,15105800000.0
1062.874,16345000000.0
1063.135,17754100000.0
1063.396,19368300000.0
1063.657,21116800000.0
1063.918,23051200000.0
1064.18,24999000000.0
1064.702,29100400000.0
1065.0,31497400000.0
1065.596,35954100000.0
1065.894,38300600000.0
1066.191,40860900000.0
1066.489,43644200000.0
1066.787,46552400000.0
1067.383,52554100000.0
1067.681,55019700000.0
1067.979,57136900000.0
1068.276,57764000000.0
1068.574,57832400000.0
1068.872,56640700000.0
1069.17,54759400000.0
1069.468,52472200000.0
1069.766,49878000000.0
1070.0,47943500000.0
1070.469,44498800000.0
1070.703,43169100000.0
1070.938,41941100000.0
1071.172,41030700000.0
1071.406,40250800000.0
1071.641,39635200000.0
1071.875,39123700000.0
1072.344,38227000000.0
1072.812,37233600000.0
1073.281,35887000000.0
1073.75,34140000000.0
1074.219,32115600000.0
1075.0,28770800000.0
1075.391,27453200000.0
1075.781,26487400000.0
1076.172,25883700000.0
1076.562,25653000000.0
1076.758,25770500000.0
1076.953,25887700000.0
1077.148,26245000000.0
1077.344,26688100000.0
1077.539,27206600000.0
1077.734,28008000000.0
1077.93,28852300000.0
1078.125,29953100000.0
1078.32,31264800000.0
1078.516,32719600000.0
1078.711,34588500000.0
1078.906,36647700000.0
1079.102,39036000000.0
1079.297,41833100000.0
1079.492,45000000000.0
1079.688,48749100000.0
1079.844,52158800000.0
1080.0,55972800000.0
1080.156,60154700000.0
1080.312,64858100000.0
1080.469,70183100000.0
1080.625,75939400000.0
1080.781,82423100000.0
1080.938,89855000000.0
1081.094,97794300000.0
1081.25,106421000000.0
1081.394,115417000000.0
1081.538,125290000000.0
1081.682,135466000000.0
1081.826,146867000000.0
1081.97,159669000000.0
1082.114,172244000000.0
1082.258,185725000000.0
1082.401,200789000000.0
1082.689,232496000000.0
1082.833,249943000000.0
