Wavelength,Flux
900.0,575016000.0
903.442,624275000.0
904.998,647759000.0
906.554,672032000.0
908.11,697116000.0
909.667,723051000.0
910.703,740784000.0
911.74,758921000.0
911.84,760692000.0
912.0,763531000.0
912.31,769059000.0
912.779,777492000.0
913.717,794605000.0
914.335,806822000.0
915.329,824804000.0
915.824,834281000.0
915.892,835592000.0
916.028,844492000.0
916.164,853112000.0
916.297,843905000.0
916.429,845997000.0
916.495,847289000.0
916.561,849129000.0
916.628,859247000.0
916.694,872858000.0
916.76,882131000.0
916.826,885790000.0
916.892,883059000.0
916.958,872706000.0
917.025,860696000.0
917.091,858978000.0
917.157,860287000.0
917.181,860763000.0
917.231,861754000.0
917.331,866226000.0
917.39,881186000.0
917.448,900358000.0
917.565,930514000.0
917.623,938638000.0
917.682,941847000.0
917.74,939667000.0
917.799,931224000.0
917.857,915700000.0
917.916,896146000.0
917.974,880104000.0
918.033,877766000.0
918.129,879706000.0
918.225,881653000.0
918.273,884739000.0
918.322,898642000.0
918.37,919967000.0
918.418,944422000.0
918.514,986571000.0
918.562,1003110000.0
918.611,1016160000.0
918.707,1033830000.0
918.755,1037860000.0
918.803,1038520000.0
918.851,1035390000.0
918.9,1027840000.0
918.948,1015550000.0
918.996,998317000.0
919.004,994735000.0
919.054,971001000.0
919.154,919519000.0
919.203,904497000.0
919.253,902640000.0
919.302,903656000.0
919.351,904674000.0
919.45,906716000.0
919.499,910689000.0
919.548,928789000.0
919.597,957527000.0
919.647,991969000.0
919.745,1059710000.0
919.844,1113950000.0
919.942,1153020000.0
920.041,1180320000.0
920.139,1196620000.0
920.238,1201980000.0
920.336,1194350000.0
920.435,1169590000.0
920.533,1123610000.0
920.56,1106700000.0
920.614,1067940000.0
920.721,984254000.0
920.775,952353000.0
920.829,936883000.0
920.882,936852000.0
920.936,938001000.0
920.963,938579000.0
921.017,939734000.0
921.125,949223000.0
921.179,977736000.0
921.233,1021790000.0
921.287,1072980000.0
921.342,1126100000.0
921.45,1222170000.0
921.504,1262630000.0
921.558,1297920000.0
921.666,1355030000.0
921.72,1377890000.0
921.774,1398020000.0
921.882,1429570000.0
921.99,1451300000.0
922.099,1464130000.0
922.117,1465380000.0
922.167,1467320000.0
922.267,1463960000.0
922.367,1448740000.0
922.467,1417190000.0
922.506,1399350000.0
922.584,1353710000.0
922.623,1325340000.0
922.662,1292730000.0
922.74,1216110000.0
922.818,1130690000.0
922.895,1051290000.0
922.943,1012810000.0
922.992,988840000.0
923.042,984014000.0
923.089,985025000.0
923.114,985585000.0
923.138,986121000.0
923.144,986255000.0
923.15,986390000.0
923.156,986523000.0
923.162,986657000.0
923.187,987216000.0
923.211,987753000.0
923.261,988927000.0
923.308,995952000.0
923.358,1023540000.0
923.405,1064640000.0
923.455,1120360000.0
923.505,1182740000.0
923.555,1246600000.0
923.655,1369290000.0
923.724,1444460000.0
923.794,1510990000.0
923.864,1567640000.0
923.933,1616840000.0
924.003,1659430000.0
924.072,1696290000.0
924.183,1744560000.0
924.294,1783860000.0
924.405,1816400000.0
924.436,1824230000.0
924.498,1838520000.0
924.623,1861870000.0
924.688,1871210000.0
924.818,1883850000.0
924.939,1887280000.0
925.06,1880610000.0
925.182,1860840000.0
925.189,1859110000.0
925.239,1845670000.0
925.339,1807860000.0
925.439,1753610000.0
925.489,1718090000.0
925.539,1676660000.0
925.579,1639060000.0
925.659,1552270000.0
925.699,1501950000.0
925.739,1448670000.0
925.819,1334540000.0
925.899,1219700000.0
925.935,1172980000.0
925.97,1131240000.0
926.005,1097000000.0
926.041,1072490000.0
926.067,1060060000.0
926.117,1054760000.0
926.165,1055860000.0
926.189,1056440000.0
926.214,1057030000.0
926.22,1057170000.0
926.226,1057320000.0
926.232,1057460000.0
926.238,1057600000.0
926.263,1058200000.0
926.287,1058760000.0
926.337,1060010000.0
926.385,1067680000.0
926.435,1098300000.0
926.482,1144740000.0
926.532,1209250000.0
926.582,1284440000.0
926.632,1364070000.0
926.732,1524810000.0
926.802,1632050000.0
926.873,1729220000.0
926.943,1817400000.0
927.014,1894830000.0
927.084,1964370000.0
927.155,2026500000.0
927.263,2111000000.0
927.371,2181560000.0
927.479,2242720000.0
927.587,2295410000.0
927.695,2341120000.0
927.875,2405480000.0
928.055,2458620000.0
928.235,2502590000.0
928.487,2550200000.0
928.739,2580320000.0
928.992,2588630000.0
929.097,2583240000.0
929.308,2550510000.0
929.413,2519990000.0
929.519,2477440000.0
929.612,2427510000.0
929.706,2363960000.0
929.8,2284700000.0
929.893,2188430000.0
929.987,2075320000.0
930.08,1944210000.0
930.098,1916940000.0
930.148,1835870000.0
930.248,1661130000.0
930.348,1478300000.0
930.398,1390760000.0
930.448,1310570000.0
930.491,1251700000.0
930.541,1201010000.0
930.589,1172250000.0
930.639,1167040000.0
930.687,1168270000.0
930.711,1168890000.0
930.736,1169540000.0
930.742,1169700000.0
930.748,1169850000.0
930.754,1170010000.0
930.76,1170170000.0
930.785,1170820000.0
930.809,1171440000.0
930.859,1172780000.0
930.907,1180580000.0
930.957,1213780000.0
931.005,1266310000.0
931.055,1339260000.0
931.105,1426160000.0
931.155,1520530000.0
931.255,1718380000.0
931.355,1912110000.0
931.398,1992030000.0
931.484,2140330000.0
931.57,2277870000.0
931.657,2404800000.0
931.743,2520740000.0
931.79,2579400000.0
931.884,2687000000.0
931.979,2783350000.0
932.073,2868250000.0
932.262,3012550000.0
932.451,3129810000.0
932.64,3229150000.0
932.829,3314570000.0
933.033,3393980000.0
933.44,3526620000.0
933.848,3633660000.0
934.255,3721300000.0
934.276,3725210000.0
934.326,3734480000.0
934.426,3752100000.0
934.626,3783200000.0
934.826,3807910000.0
935.026,3824840000.0
935.226,3831950000.0
935.426,3827050000.0
935.514,3819470000.0
935.69,3793240000.0
935.866,3749780000.0
936.042,3682130000.0
936.218,3584010000.0
936.393,3449190000.0
936.569,3271520000.0
936.745,3038300000.0
936.753,3026690000.0
936.803,2948390000.0
936.903,2778840000.0
937.003,2591820000.0
937.103,2390700000.0
937.148,2296180000.0
937.238,2096920000.0
937.419,1690000000.0
937.481,1564790000.0
937.544,1461020000.0
937.593,1403200000.0
937.642,1369270000.0
937.691,1363520000.0
937.74,1364960000.0
937.766,1365730000.0
937.791,1366480000.0
937.797,1366660000.0
937.803,1366840000.0
937.809,1367020000.0
937.815,1367200000.0
937.84,1367940000.0
937.865,1368690000.0
937.915,1370210000.0
937.964,1378970000.0
938.014,1417110000.0
938.062,1477710000.0
938.112,1562350000.0
938.162,1663830000.0
938.212,1775500000.0
938.262,1893600000.0
938.362,2137200000.0
938.458,2367400000.0
938.554,2587090000.0
938.65,2799170000.0
938.746,3001380000.0
938.842,3190750000.0
938.853,3211200000.0
938.903,3302830000.0
939.003,3474710000.0
939.103,3631320000.0
939.203,3776020000.0
939.303,3908180000.0
939.503,4141950000.0
939.703,4339790000.0
939.903,4506990000.0
940.103,4649890000.0
940.303,4773560000.0
940.434,4846830000.0
940.696,4977400000.0
941.22,5195760000.0
941.744,5375850000.0
942.015,5459710000.0
942.556,5613020000.0
942.894,5701040000.0
943.57,5864680000.0
943.773,5909360000.0
944.18,5993340000.0
944.625,6075590000.0
945.478,6191300000.0
945.905,6216160000.0
946.331,6203780000.0
946.705,6145290000.0
947.079,6023470000.0
947.266,5931300000.0
947.453,5811120000.0
947.64,5656690000.0
947.827,5466670000.0
948.014,5233660000.0
948.201,4951940000.0
948.295,4793900000.0
948.388,4621170000.0
948.482,4434740000.0
948.575,4235030000.0
948.669,4019290000.0
948.68,3992140000.0
948.73,3870270000.0
948.83,3615320000.0
949.03,3077520000.0
949.08,2938430000.0
949.18,2652400000.0
949.38,2096210000.0
949.43,1979800000.0
949.48,1882370000.0
949.53,1810850000.0
949.58,1769840000.0
949.63,1763980000.0
949.68,1765850000.0
949.705,1766790000.0
949.73,1767730000.0
949.737,1767990000.0
949.743,1768220000.0
949.749,1768440000.0
949.755,1768670000.0
949.781,1769650000.0
949.806,1770590000.0
949.856,1772480000.0
949.906,1781960000.0
949.956,1827030000.0
950.006,1903240000.0
950.056,2006540000.0
950.106,2129270000.0
950.156,2265340000.0
950.206,2411480000.0
950.306,2715530000.0
950.406,3020740000.0
950.606,3612460000.0
950.806,4177340000.0
950.906,4441850000.0
951.006,4690930000.0
951.206,5150700000.0
951.406,5559730000.0
951.605,5922490000.0
951.805,6241200000.0
952.005,6521520000.0
952.205,6767110000.0
952.405,6981350000.0
952.407,6983700000.0
952.457,7033660000.0
952.557,7129630000.0
952.757,7307290000.0
952.957,7465040000.0
953.157,7607660000.0
953.357,7739540000.0
953.557,7861680000.0
953.757,7974240000.0
953.957,8077720000.0
954.008,8102990000.0
954.11,8152610000.0
954.314,8247960000.0
954.721,8426270000.0
955.537,8741440000.0
955.609,8767570000.0
955.753,8819130000.0
956.042,8920330000.0
956.618,9120140000.0
957.211,9313990000.0
958.397,9680980000.0
958.812,9803920000.0
959.643,10047600000.0
960.413,10274300000.0
960.776,10387500000.0
961.14,10495400000.0
961.376,10565600000.0
961.611,10635700000.0
962.081,10776200000.0
963.021,11058100000.0
963.251,11127400000.0
963.71,11265800000.0
964.629,11535300000.0
964.89,11612500000.0
965.412,11767700000.0
966.456,12080200000.0
966.53,12102400000.0
966.678,12147000000.0
966.975,12235800000.0
967.567,12412900000.0
968.169,12590700000.0
969.372,12932100000.0
969.809,13047000000.0
970.683,13257600000.0
971.065,13330300000.0
971.448,13272900000.0
971.653,13103500000.0
971.858,12957600000.0
971.908,12924100000.0
972.008,12852100000.0
972.108,12702500000.0
972.208,12564000000.0
972.268,12485500000.0
972.37,12361700000.0
972.473,12246200000.0
972.499,12218200000.0
972.524,12191900000.0
972.531,12184500000.0
972.537,12178200000.0
972.543,12171900000.0
972.55,12164700000.0
972.575,12139000000.0
972.601,12112700000.0
972.653,12061400000.0
972.703,12043100000.0
972.803,12016900000.0
972.806,12016100000.0
972.856,12003400000.0
972.956,11978300000.0
973.156,11930600000.0
973.216,11916700000.0
973.336,11903200000.0
973.456,11977200000.0
973.576,12052600000.0
973.626,12084400000.0
973.726,12148400000.0
973.926,12279200000.0
974.326,12618600000.0
974.726,12994200000.0
975.265,13492800000.0
975.804,13930600000.0
976.344,14306100000.0
976.905,14656500000.0
978.028,15381100000.0
978.544,15686400000.0
979.576,16267800000.0
980.184,16613900000.0
981.399,17195400000.0
981.823,17371700000.0
982.67,17725800000.0
983.463,18056600000.0
985.048,18727800000.0
985.102,18750900000.0
985.209,18797100000.0
985.423,18889800000.0
985.851,19075300000.0
986.708,19448600000.0
986.742,19463600000.0
986.81,19493500000.0
986.947,19553400000.0
987.221,19674000000.0
987.767,19913900000.0
988.381,20192600000.0
989.608,20748400000.0
990.021,20936600000.0
990.847,21310100000.0
991.66,21688600000.0
993.287,22493500000.0
993.3,22500600000.0
993.35,22526400000.0
993.45,22578100000.0
993.65,22682100000.0
993.85,22786400000.0
994.05,22891200000.0
994.25,22996600000.0
994.45,23100700000.0
994.65,23204200000.0
994.85,23308200000.0
995.05,23412200000.0
995.25,23514200000.0
995.45,23615100000.0
995.65,23716300000.0
995.85,23818500000.0
996.05,23921800000.0
996.25,24025300000.0
996.45,24130200000.0
996.65,24238400000.0
997.05,24456500000.0
997.849,24907000000.0
999.448,25815100000.0
1000.0,26145300000.0
1001.103,26769400000.0
1001.912,27232300000.0
1003.53,28159900000.0
1003.824,28329800000.0
1004.412,28670800000.0
1005.553,29333800000.0
1007.282,30300800000.0
1009.011,31245500000.0
1010.74,32136100000.0
1012.469,32917400000.0
1014.199,33467400000.0
1015.063,33612800000.0
1015.928,33646900000.0
1016.792,33544900000.0
1017.657,33282500000.0
1018.521,32853000000.0
1019.386,32226300000.0
1020.25,31353300000.0
1021.115,30210300000.0
1021.547,29513400000.0
1021.979,28691900000.0
1022.412,27680800000.0
1022.844,26426800000.0
1023.276,24856800000.0
1023.708,22832400000.0
1023.925,21686200000.0
1024.141,20235500000.0
1024.357,18729900000.0
1024.573,17113800000.0
1024.624,16687600000.0
1024.674,16271900000.0
1024.724,15851500000.0
1024.774,15428400000.0
1024.824,14999000000.0
1024.874,14563400000.0
1024.924,14119700000.0
1024.974,13664500000.0
1025.006,13371900000.0
1025.069,12795700000.0
1025.132,12175300000.0
1025.196,11504000000.0
1025.322,10075500000.0
1025.438,8803940000.0
1025.492,8322810000.0
1025.546,7976270000.0
1025.596,7802490000.0
1025.646,7766840000.0
1025.654,7767660000.0
1025.681,7771310000.0
1025.708,7775050000.0
1025.715,7776010000.0
1025.72,7776710000.0
1025.722,7777010000.0
1025.729,7777970000.0
1025.736,7778930000.0
1025.763,7782680000.0
1025.79,7786450000.0
1025.844,7807820000.0
1025.871,7858960000.0
1025.898,7951210000.0
1025.925,8087660000.0
1025.952,8268070000.0
1025.979,8478110000.0
1026.005,8729880000.0
1026.056,9266250000.0
1026.106,9845120000.0
1026.156,10445300000.0
1026.206,11048300000.0
1026.256,11641900000.0
1026.306,12213000000.0
1026.356,12760300000.0
1026.406,13278600000.0
1026.438,13591300000.0
1026.501,14200300000.0
1026.628,15406100000.0
1026.87,17591100000.0
1027.112,19603400000.0
1027.355,21450000000.0
1027.597,23226100000.0
1027.839,24708000000.0
1028.082,26134200000.0
1028.324,27373800000.0
1028.566,28563000000.0
1028.6,28704300000.0
1028.668,28986200000.0
1028.803,29547600000.0
1029.073,30625400000.0
1029.344,31554100000.0
1029.614,32443700000.0
1030.155,34059400000.0
1030.329,34538600000.0
1030.676,35515100000.0
1031.37,37541600000.0
1032.058,39435100000.0
1032.745,41095100000.0
1033.433,42640300000.0
1033.787,43418700000.0
1034.495,44730600000.0
1035.203,45884600000.0
1035.516,46500200000.0
1036.142,47911900000.0
1036.694,49350800000.0
1037.246,50935100000.0
1038.35,53715100000.0
1038.975,55133000000.0
1040.225,57421800000.0
1040.704,58255500000.0
1041.662,59938100000.0
1042.433,61203200000.0
1043.975,63672900000.0
1044.162,63977300000.0
1044.536,64589000000.0
1045.284,65831200000.0
1045.892,66870500000.0
1047.108,68922800000.0
1047.621,69747500000.0
1048.647,71440800000.0
1048.81,71715000000.0
1049.135,72267600000.0
1049.786,73381000000.0
1050.0,73743900000.0
1050.427,74436800000.0
1051.282,75789700000.0
1052.991,78517100000.0
1055.0,81794600000.0
1059.019,88251100000.0
1060.0,90187200000.0
1061.963,94635200000.0
1063.926,99680700000.0
1065.0,102374000000.0
1067.148,107625000000.0
1070.0,113816000000.0
1072.852,119980000000.0
1075.0,124572000000.0
1077.148,129500000000.0
1079.297,136523000000.0
1080.0,139225000000.0
1081.406,144872000000.0
1081.538,145413000000.0
1081.801,146484000000.0
1082.328,148583000000.0
1083.077,151549000000.0
1084.575,157118000000.0
1086.538,164156000000.0
1090.0,177038000000.0
1093.462,190303000000.0
1095.0,196634000000.0
1098.076,209933000000.0
1100.0,218285000000.0
1103.848,236241000000.0
1105.0,241961000000.0
1107.304,253178000000.0
1110.0,266399000000.0
1112.696,280262000000.0
1115.0,292713000000.0
1119.607,316561000000.0
1120.0,318558000000.0
1120.785,322571000000.0
1122.355,330042000000.0
1125.0,340773000000.0
1126.322,344442000000.0
1127.645,347427000000.0
1130.0,350621000000.0
1131.154,351286000000.0
1132.308,350663000000.0
1134.616,347048000000.0
1136.154,342161000000.0
1137.692,336061000000.0
1140.0,324647000000.0
1142.308,312728000000.0
1145.0,299879000000.0
1147.692,288664000000.0
1148.846,285291000000.0
1150.0,281904000000.0
1152.308,276870000000.0
1154.615,273140000000.0
1159.23,267687000000.0
1163.846,264125000000.0
1165.769,263208000000.0
1169.616,262387000000.0
1173.462,262392000000.0
1177.309,263560000000.0
1181.156,266644000000.0
1181.538,267089000000.0
1182.302,268063000000.0
1183.831,270290000000.0
1185.628,273365000000.0
1189.222,280252000000.0
1189.718,281163000000.0
1190.71,282838000000.0
1191.767,284345000000.0
1193.816,286259000000.0
1195.866,286619000000.0
1197.915,285840000000.0
1199.964,284140000000.0
1202.014,281346000000.0
1204.063,276326000000.0
1205.087,271954000000.0
1206.112,266333000000.0
1206.113,266326000000.0
1206.163,266002000000.0
1206.213,265676000000.0
1206.263,265354000000.0
1206.313,265036000000.0
1206.363,264723000000.0
1206.413,264414000000.0
1206.463,264109000000.0
1206.513,263773000000.0
1206.563,263346000000.0
1206.614,262925000000.0
1206.664,262512000000.0
1206.714,262106000000.0
1206.764,261706000000.0
1206.814,261312000000.0
1206.864,260924000000.0
1206.914,260543000000.0
1206.964,260168000000.0
1207.014,259760000000.0
1207.064,259262000000.0
1207.114,258772000000.0
1207.164,258292000000.0
1207.214,257819000000.0
1207.264,257352000000.0
1207.314,256895000000.0
1207.364,256445000000.0
1207.414,256004000000.0
1207.464,255571000000.0
1207.514,255116000000.0
1207.564,254598000000.0
1207.615,254081000000.0
1207.665,253569000000.0
1207.715,253073000000.0
1207.765,252586000000.0
1207.815,252108000000.0
1207.865,251639000000.0
1207.915,251179000000.0
1207.965,250721000000.0
1208.015,250249000000.0
1208.065,249733000000.0
1208.115,249228000000.0
1208.162,248762000000.0
1208.256,247856000000.0
1208.444,246134000000.0
1208.82,241928000000.0
1209.572,232190000000.0
1210.211,223609000000.0
1210.85,214356000000.0
1211.489,203547000000.0
1212.261,191771000000.0
1213.033,180516000000.0
1213.671,172663000000.0
1214.31,165873000000.0
1214.822,159592000000.0
1214.95,156726000000.0
1215.078,152660000000.0
1215.206,146489000000.0
1215.334,137872000000.0
1215.385,134206000000.0
1215.435,130949000000.0
1215.463,129496000000.0
1215.519,127539000000.0
1215.547,127175000000.0
1215.575,127117000000.0
1215.591,127137000000.0
1215.623,127186000000.0
1215.655,127236000000.0
1215.663,127248000000.0
1215.67,127259000000.0
1215.679,127272000000.0
1215.687,127285000000.0
1215.719,127334000000.0
1215.751,127383000000.0
1215.815,127869000000.0
1215.847,128791000000.0
1215.879,130304000000.0
1215.929,133483000000.0
1215.979,137368000000.0
1216.007,139766000000.0
1216.063,144654000000.0
1216.174,154034000000.0
1216.285,162312000000.0
1216.397,169693000000.0
1216.52,177046000000.0
1216.643,183052000000.0
1216.767,188790000000.0
1217.014,200214000000.0
1217.032,200930000000.0
1217.082,202907000000.0
1217.132,204920000000.0
1217.182,206985000000.0
1217.232,209111000000.0
1217.282,211348000000.0
1217.332,213671000000.0
1217.382,216046000000.0
1217.432,218494000000.0
1217.482,221095000000.0
1217.532,223271000000.0
1217.583,225196000000.0
1217.633,227147000000.0
1217.683,229154000000.0
1217.733,231235000000.0
1217.783,233375000000.0
1217.833,235599000000.0
1217.883,237911000000.0
1217.933,240331000000.0
1217.983,242865000000.0
1218.033,245029000000.0
1218.083,246994000000.0
1218.133,249019000000.0
1218.183,251104000000.0
1218.233,253257000000.0
1218.283,255497000000.0
1218.333,257828000000.0
1218.383,260232000000.0
1218.433,262734000000.0
1218.483,265338000000.0
1218.533,267318000000.0
1218.583,268972000000.0
1218.634,270667000000.0
1218.684,272405000000.0
1218.734,274190000000.0
1218.784,276028000000.0
1218.834,277902000000.0
1218.884,279819000000.0
1218.934,281796000000.0
1218.984,283844000000.0
1219.034,285745000000.0
1219.081,287483000000.0
1219.175,291068000000.0
1219.364,298889000000.0
1219.741,313750000000.0
1220.118,327305000000.0
1220.495,337774000000.0
1221.131,356558000000.0
1221.767,372104000000.0
1222.404,381016000000.0
1222.792,389179000000.0
1223.18,398118000000.0
1223.956,414010000000.0
1224.593,424295000000.0
1225.229,432565000000.0
1225.865,439115000000.0
1226.501,444420000000.0
1227.279,450064000000.0
1228.834,461868000000.0
1229.328,465653000000.0
1230.316,473805000000.0
1231.378,482325000000.0
1233.427,499049000000.0
1235.476,514934000000.0
1237.526,529916000000.0
1239.575,543794000000.0
1241.625,557514000000.0
1245.725,586294000000.0
1249.825,616644000000.0
1250.812,623466000000.0
1252.786,638913000000.0
1256.733,669703000000.0
1260.0,698192000000.0
1263.267,730493000000.0
1265.0,747252000000.0
1268.466,778519000000.0
1270.0,793847000000.0
1273.068,824545000000.0
1275.0,843192000000.0
1278.863,886545000000.0
1280.0,898951000000.0
1282.273,923009000000.0
1285.0,948992000000.0
1287.727,976689000000.0
1290.0,1000640000000.0
1294.547,1053090000000.0
1295.0,1058690000000.0
1295.906,1070020000000.0
1297.719,1092350000000.0
1300.0,1119810000000.0
1305.0,1176800000000.0
1310.0,1236040000000.0
1315.0,1298280000000.0
1320.0,1363300000000.0
1325.0,1431590000000.0
1330.0,1503780000000.0
1335.0,1578950000000.0
1340.0,1655530000000.0
1345.0,1733650000000.0
