Wavelength,Flux
900.0,91481600.0
903.442,100017000.0
904.998,104106000.0
906.554,108347000.0
908.11,112743000.0
909.667,117302000.0
910.703,120428000.0
911.74,123632000.0
911.84,123945000.0
912.0,124447000.0
912.31,125426000.0
912.779,126919000.0
913.717,129954000.0
914.335,131990000.0
915.329,135324000.0
915.824,137013000.0
915.892,137246000.0
916.028,137764000.0
916.3,138665000.0
916.429,139102000.0
916.686,140239000.0
917.181,141740000.0
917.448,143325000.0
917.715,144716000.0
917.922,144955000.0
918.129,145130000.0
918.336,146649000.0
918.543,148774000.0
918.75,149998000.0
918.957,150756000.0
919.004,150787000.0
919.098,150405000.0
919.285,149363000.0
919.351,149606000.0
919.482,150176000.0
919.614,152920000.0
919.745,154911000.0
919.877,156234000.0
920.008,157244000.0
920.271,158815000.0
920.56,159385000.0
920.704,157808000.0
920.849,155279000.0
920.906,155483000.0
920.963,155703000.0
921.077,156160000.0
921.192,159188000.0
921.306,162617000.0
921.42,164770000.0
921.534,166285000.0
921.763,168469000.0
921.991,170221000.0
922.117,171062000.0
922.368,172429000.0
922.506,172825000.0
922.644,172590000.0
922.781,170968000.0
922.838,169604000.0
922.895,167725000.0
922.992,164320000.0
923.041,163897000.0
923.089,164086000.0
923.114,164187000.0
923.138,164284000.0
923.144,164308000.0
923.15,164332000.0
923.156,164357000.0
923.162,164381000.0
923.187,164482000.0
923.211,164579000.0
923.261,164791000.0
923.308,165615000.0
923.355,167627000.0
923.402,169934000.0
923.405,170100000.0
923.455,172437000.0
923.555,176224000.0
923.655,178886000.0
923.755,180762000.0
923.794,181374000.0
923.872,182489000.0
924.028,184339000.0
924.183,185864000.0
924.436,188073000.0
924.688,190069000.0
924.939,191850000.0
925.189,193305000.0
925.384,193967000.0
925.579,193562000.0
925.676,192519000.0
925.774,190469000.0
925.871,187036000.0
925.969,182099000.0
925.97,182036000.0
926.02,179294000.0
926.067,177287000.0
926.114,176726000.0
926.161,176920000.0
926.165,176936000.0
926.189,177040000.0
926.214,177148000.0
926.22,177174000.0
926.226,177200000.0
926.232,177226000.0
926.238,177252000.0
926.263,177360000.0
926.287,177464000.0
926.337,177688000.0
926.385,178675000.0
926.433,181200000.0
926.481,184393000.0
926.532,187790000.0
926.632,193695000.0
926.732,198183000.0
926.832,201490000.0
926.873,202571000.0
926.955,204482000.0
927.119,207467000.0
927.263,209489000.0
927.55,212782000.0
927.875,215959000.0
928.487,221342000.0
929.097,226103000.0
929.706,228894000.0
929.902,228226000.0
930.098,225248000.0
930.196,222124000.0
930.294,217555000.0
930.392,211278000.0
930.49,203925000.0
930.541,200303000.0
930.589,197843000.0
930.637,197246000.0
930.685,197469000.0
930.687,197479000.0
930.711,197593000.0
930.736,197712000.0
930.742,197741000.0
930.748,197770000.0
930.754,197798000.0
930.76,197827000.0
930.785,197946000.0
930.809,198061000.0
930.859,198307000.0
930.907,199371000.0
930.955,202330000.0
931.003,206284000.0
931.005,206462000.0
931.055,210868000.0
931.155,219468000.0
931.255,226708000.0
931.355,232511000.0
931.398,234554000.0
931.484,237987000.0
931.657,243016000.0
931.79,245862000.0
932.057,250230000.0
932.324,253624000.0
932.857,259383000.0
933.033,261174000.0
933.384,264648000.0
934.087,271342000.0
934.276,273104000.0
934.654,276570000.0
935.41,283146000.0
935.514,283981000.0
935.722,285562000.0
936.137,288115000.0
936.445,288899000.0
936.753,287265000.0
936.951,283755000.0
937.148,276142000.0
937.346,261593000.0
937.543,241817000.0
937.594,237263000.0
937.642,234269000.0
937.692,233569000.0
937.741,233837000.0
937.766,233976000.0
937.791,234115000.0
937.797,234148000.0
937.803,234181000.0
937.809,234215000.0
937.815,234249000.0
937.84,234388000.0
937.865,234527000.0
937.915,234810000.0
937.964,236072000.0
938.013,239718000.0
938.062,244741000.0
938.16,256094000.0
938.258,267388000.0
938.356,277483000.0
938.454,285698000.0
938.458,285987000.0
938.508,289472000.0
938.608,295373000.0
938.708,300060000.0
938.808,304061000.0
938.853,305650000.0
938.943,308450000.0
939.124,313031000.0
939.484,319867000.0
939.845,325150000.0
940.434,332440000.0
941.611,345566000.0
942.015,349931000.0
942.822,358637000.0
942.894,359411000.0
943.037,360954000.0
943.324,364048000.0
943.773,368871000.0
944.625,378022000.0
945.478,387131000.0
947.079,402950000.0
947.479,405875000.0
947.88,407425000.0
948.28,405931000.0
948.68,397101000.0
948.88,387157000.0
949.08,371454000.0
949.28,347328000.0
949.48,319468000.0
949.53,313632000.0
949.58,309686000.0
949.63,308939000.0
949.68,309294000.0
949.705,309473000.0
949.73,309652000.0
949.737,309702000.0
949.743,309744000.0
949.749,309788000.0
949.755,309831000.0
949.781,310017000.0
949.806,310196000.0
949.856,310556000.0
949.906,312031000.0
949.956,316731000.0
950.006,323355000.0
950.056,330784000.0
950.156,346895000.0
950.356,377069000.0
950.406,383372000.0
950.506,394397000.0
950.606,403874000.0
950.706,411967000.0
950.806,418885000.0
951.005,429800000.0
951.205,438049000.0
951.404,444567000.0
951.803,454463000.0
952.202,462203000.0
952.407,465754000.0
952.816,472355000.0
953.635,484539000.0
954.008,489858000.0
954.753,500326000.0
955.609,512275000.0
957.211,534818000.0
958.812,557910000.0
960.413,581635000.0
960.776,587146000.0
961.14,592693000.0
961.376,596305000.0
961.611,599920000.0
962.081,607209000.0
963.021,622020000.0
963.251,625685000.0
963.71,633063000.0
964.629,647997000.0
964.89,652278000.0
965.412,660869000.0
966.456,678361000.0
966.53,679619000.0
966.678,682142000.0
966.975,687211000.0
967.567,697447000.0
968.169,707962000.0
969.372,729342000.0
969.809,737184000.0
970.683,752990000.0
971.448,766572000.0
971.858,772643000.0
972.268,777644000.0
972.37,778752000.0
972.473,779871000.0
972.499,780153000.0
972.524,780421000.0
972.531,780500000.0
972.537,780563000.0
972.543,780628000.0
972.55,780702000.0
972.575,780974000.0
972.601,781256000.0
972.653,781820000.0
972.703,782559000.0
972.803,784105000.0
972.806,784153000.0
972.856,784925000.0
972.956,786470000.0
973.156,789570000.0
973.216,790500000.0
973.336,792461000.0
973.576,797694000.0
973.626,798793000.0
973.726,800992000.0
973.926,805413000.0
974.326,814778000.0
975.126,833784000.0
975.265,837107000.0
975.544,843519000.0
976.101,856264000.0
976.905,874162000.0
978.512,910347000.0
978.544,911069000.0
978.608,912514000.0
978.735,915393000.0
978.989,921154000.0
979.498,932797000.0
980.184,948716000.0
981.556,980886000.0
981.823,987199000.0
982.357,999934000.0
983.424,1025830000.0
983.463,1026770000.0
983.54,1028660000.0
983.694,1032460000.0
984.003,1040080000.0
984.62,1055500000.0
985.102,1067650000.0
986.065,1092200000.0
986.742,1109760000.0
988.095,1145670000.0
988.381,1153390000.0
988.953,1168960000.0
990.021,1198600000.0
991.66,1245420000.0
993.3,1294140000.0
996.58,1396430000.0
996.65,1398690000.0
996.79,1403220000.0
997.07,1412330000.0
997.63,1430730000.0
998.75,1468180000.0
1000.0,1510940000.0
1001.912,1578360000.0
1003.824,1648490000.0
1005.553,1714280000.0
1007.282,1781850000.0
1009.011,1851720000.0
1010.74,1923810000.0
1012.469,1997940000.0
1014.199,2073610000.0
1015.928,2149690000.0
1017.657,2223510000.0
1019.386,2287720000.0
1020.25,2310560000.0
1021.115,2321450000.0
1021.979,2312810000.0
1022.844,2268940000.0
1023.276,2229100000.0
1023.708,2176710000.0
1024.141,2111050000.0
1024.573,2025000000.0
1024.624,2011850000.0
1024.674,1999020000.0
1024.724,1985580000.0
1024.774,1971460000.0
1024.824,1956190000.0
1024.874,1940350000.0
1024.924,1923430000.0
1024.974,1905350000.0
1025.006,1893540000.0
1025.069,1868540000.0
1025.196,1805970000.0
1025.259,1767370000.0
1025.322,1724080000.0
1025.438,1640440000.0
1025.546,1571120000.0
1025.6,1551210000.0
1025.654,1547930000.0
1025.681,1548720000.0
1025.708,1549530000.0
1025.715,1549740000.0
1025.72,1549890000.0
1025.722,1549950000.0
1025.729,1550170000.0
1025.736,1550380000.0
1025.763,1551190000.0
1025.79,1552010000.0
1025.844,1555750000.0
1025.898,1574230000.0
1025.952,1606710000.0
1026.005,1645840000.0
1026.056,1686240000.0
1026.106,1726780000.0
1026.156,1765910000.0
1026.206,1804060000.0
1026.256,1839010000.0
1026.306,1870600000.0
1026.356,1899690000.0
1026.406,1925790000.0
1026.438,1941160000.0
1026.501,1969230000.0
1026.628,2022520000.0
1026.87,2108980000.0
1027.112,2182670000.0
1027.355,2247710000.0
1027.839,2364350000.0
1028.324,2469910000.0
1028.6,2526550000.0
1029.152,2622760000.0
1029.704,2704870000.0
1030.257,2776800000.0
1030.329,2785630000.0
1030.474,2803280000.0
1030.763,2837840000.0
1031.341,2904180000.0
1032.058,2977700000.0
1033.493,3103470000.0
1033.787,3127860000.0
1034.376,3173840000.0
1035.516,3260180000.0
1037.246,3400960000.0
1038.975,3538680000.0
1040.704,3673240000.0
1042.433,3810740000.0
1044.162,3951950000.0
1045.892,4097250000.0
1047.621,4246520000.0
1048.81,4351830000.0
1050.0,4459770000.0
1052.38,4680950000.0
1055.0,4935030000.0
1057.62,5200750000.0
1060.0,5452870000.0
1064.76,5995900000.0
1065.0,6024300000.0
1065.48,6081400000.0
1066.441,6197010000.0
1068.363,6433920000.0
1070.0,6641120000.0
1073.273,7071700000.0
1075.0,7307720000.0
1078.453,7804060000.0
1080.0,8037020000.0
1081.538,8275020000.0
1083.077,8518720000.0
1086.155,9023210000.0
1086.538,9087470000.0
1087.304,9216650000.0
1088.835,9480180000.0
1090.0,9685260000.0
1092.33,10107500000.0
1095.0,10610500000.0
1097.67,11131700000.0
1100.0,11605500000.0
1104.661,12604900000.0
1105.0,12679900000.0
1105.679,12831200000.0
1107.036,13138500000.0
1109.751,13771800000.0
1110.0,13831300000.0
1110.498,13950700000.0
1111.494,14192000000.0
1113.486,14683400000.0
1115.0,15063400000.0
1118.027,15845400000.0
1120.0,16369800000.0
1123.945,17442000000.0
1125.0,17730800000.0
1127.109,18300200000.0
1130.0,19061300000.0
1131.154,19365000000.0
1132.308,19663200000.0
1134.616,20249200000.0
1136.154,20619700000.0
1139.23,21304700000.0
1140.0,21454100000.0
1141.539,21747500000.0
1144.617,22266900000.0
1145.0,22329700000.0
1145.766,22427800000.0
1147.297,22636900000.0
1150.0,22960600000.0
1152.703,23250400000.0
1155.406,23488200000.0
1158.109,23680500000.0
1160.812,23885300000.0
1163.516,24088500000.0
1165.769,24308700000.0
1170.276,24917300000.0
1174.783,25758000000.0
1179.29,26829300000.0
1181.538,27455400000.0
1185.628,28747600000.0
1189.718,30170700000.0
1191.767,30876600000.0
1193.816,31549300000.0
1195.866,32171200000.0
1197.915,32762600000.0
1199.964,33330200000.0
1202.014,33871900000.0
1204.063,34330500000.0
1206.113,34582700000.0
1208.162,34500600000.0
1209.187,34331900000.0
1210.211,34039300000.0
1210.261,34027000000.0
1210.311,34015500000.0
1210.361,34004600000.0
1210.411,33994100000.0
1210.461,33983900000.0
1210.511,33970600000.0
1210.561,33946100000.0
1210.611,33923300000.0
1210.661,33900900000.0
1210.712,33879500000.0
1210.762,33859100000.0
1210.812,33839700000.0
1210.862,33821300000.0
1210.912,33803800000.0
1210.962,33787100000.0
1211.012,33767500000.0
1211.062,33736900000.0
1211.112,33707800000.0
1211.162,33680300000.0
1211.212,33654200000.0
1211.262,33630700000.0
1211.312,33610600000.0
1211.362,33591900000.0
1211.412,33574500000.0
1211.462,33558200000.0
1211.512,33542100000.0
1211.562,33525200000.0
1211.612,33508900000.0
1211.662,33493600000.0
1211.713,33479200000.0
1211.763,33465700000.0
1211.813,33453300000.0
1211.863,33442200000.0
1211.913,33431900000.0
1211.963,33422400000.0
1212.013,33409300000.0
1212.063,33384900000.0
1212.113,33361600000.0
1212.163,33339300000.0
1212.213,33318400000.0
1212.261,33299600000.0
1212.357,33263900000.0
1212.549,33212300000.0
1212.933,33123400000.0
1213.7,33044300000.0
1214.31,33068900000.0
1214.822,33166600000.0
1215.335,33053800000.0
1215.463,32760600000.0
1215.591,32598200000.0
1215.623,32611900000.0
1215.655,32625700000.0
1215.663,32629100000.0
1215.67,32632200000.0
1215.679,32636000000.0
1215.687,32639500000.0
1215.719,32653300000.0
1215.751,32667100000.0
1215.815,32742500000.0
1215.879,32971900000.0
1216.007,33478600000.0
1216.263,34150600000.0
1216.519,34716700000.0
1216.52,34719100000.0
1216.57,34809800000.0
1216.62,34902200000.0
1216.67,34995300000.0
1216.72,35090700000.0
1216.77,35189000000.0
1216.82,35292500000.0
1216.87,35406900000.0
1216.92,35524700000.0
1216.97,35646900000.0
1217.021,35760600000.0
1217.032,35782600000.0
1217.082,35880600000.0
1217.132,35983400000.0
1217.182,36089700000.0
1217.232,36199100000.0
1217.282,36311000000.0
1217.332,36428600000.0
1217.382,36557300000.0
1217.432,36694900000.0
1217.482,36839900000.0
1217.532,36958300000.0
1217.583,37061700000.0
1217.633,37168300000.0
1217.683,37277200000.0
1217.733,37390400000.0
1217.783,37507800000.0
1217.833,37628800000.0
1217.883,37754900000.0
1217.933,37886300000.0
1217.983,38023300000.0
1218.033,38142100000.0
1218.083,38250300000.0
1218.133,38362200000.0
1218.183,38477600000.0
1218.233,38596800000.0
1218.283,38719400000.0
1218.333,38846300000.0
1218.383,38977800000.0
1218.433,39113800000.0
1218.483,39256700000.0
1218.533,39366500000.0
1218.583,39458400000.0
1218.634,39551700000.0
1218.684,39646600000.0
1218.734,39742400000.0
1218.784,39840400000.0
1218.834,39940700000.0
1218.884,40043300000.0
1218.934,40148500000.0
1218.984,40256900000.0
1219.034,40358500000.0
1219.081,40452700000.0
1219.175,40653500000.0
1219.364,41082500000.0
1219.741,41876500000.0
1220.495,43163600000.0
1221.131,44179600000.0
1221.767,45054400000.0
1222.404,45635400000.0
1223.18,46660900000.0
1223.956,47638900000.0
1225.229,48957500000.0
1226.502,49985700000.0
1227.279,50541300000.0
1228.834,51712600000.0
1229.328,52095900000.0
1230.316,52904100000.0
1231.378,53761800000.0
1233.427,55437500000.0
1235.476,57099600000.0
1237.526,58754100000.0
1239.575,60376000000.0
1241.625,62016900000.0
1245.725,65446400000.0
1249.825,69078100000.0
1250.812,69936400000.0
1252.786,71783800000.0
1256.733,75540700000.0
1260.0,78919100000.0
1263.267,82628200000.0
1265.0,84605700000.0
1268.466,88467000000.0
1270.0,90313100000.0
1273.068,94056000000.0
1275.0,96391200000.0
1278.863,101605000000.0
1280.0,103136000000.0
1282.273,106164000000.0
1285.0,109608000000.0
1287.727,113236000000.0
1290.0,116369000000.0
1294.547,123117000000.0
1295.0,123829000000.0
1295.906,125267000000.0
1297.719,128133000000.0
1300.0,131717000000.0
1305.0,139437000000.0
1310.0,147529000000.0
1315.0,156069000000.0
1320.0,165046000000.0
1325.0,174511000000.0
1330.0,184533000000.0
1335.0,195043000000.0
1340.0,205900000000.0
1345.0,217128000000.0
1350.0,228891000000.0
1355.0,241336000000.0
1360.0,254179000000.0
1365.0,267612000000.0
1370.0,281733000000.0
1374.231,294018000000.0
1378.462,306684000000.0
1379.231,309040000000.0
1380.0,311412000000.0
1381.538,316208000000.0
1384.614,325990000000.0
1385.0,327232000000.0
1385.771,329729000000.0
1387.314,334768000000.0
1390.0,343679000000.0
1395.0,360802000000.0
1400.0,378636000000.0
1405.0,397243000000.0
1410.0,416716000000.0
1415.0,436958000000.0
1420.0,457865000000.0
1425.0,479585000000.0
1430.0,502161000000.0
1435.0,525373000000.0
1440.0,549096000000.0
1445.0,573497000000.0
1450.0,598702000000.0
1455.0,624703000000.0
1460.0,651627000000.0
1465.0,679478000000.0
1470.0,708797000000.0
1473.462,729949000000.0
1476.923,751805000000.0
1478.462,761767000000.0
1480.0,771897000000.0
1483.076,792665000000.0
1485.0,806003000000.0
1488.848,833388000000.0
1490.0,841728000000.0
1492.304,858541000000.0
1495.0,878310000000.0
1500.0,915109000000.0
1505.0,952362000000.0
1510.0,991329000000.0
1515.0,1032900000000.0
1520.0,1076380000000.0
1525.0,1119520000000.0
1530.0,1159870000000.0
1535.0,1197230000000.0
1540.0,1234140000000.0
1545.0,1273580000000.0
1550.0,1316820000000.0
1555.0,1363820000000.0
1560.0,1413080000000.0
1565.0,1462390000000.0
1570.0,1510140000000.0
1572.692,1535180000000.0
1575.385,1559950000000.0
1577.692,1581240000000.0
1580.0,1602820000000.0
1584.616,1647560000000.0
1585.0,1651440000000.0
1585.768,1659230000000.0
1587.304,1675090000000.0
1590.0,1703970000000.0
1595.0,1761570000000.0
1600.0,1825040000000.0
1605.0,1895020000000.0
1610.0,1972080000000.0
1615.0,2056810000000.0
1620.0,2149660000000.0
1625.0,2251240000000.0
1630.0,2361940000000.0
1635.0,2482490000000.0
1640.0,2612220000000.0
1645.0,2751720000000.0
1650.0,2901080000000.0
1655.0,3060140000000.0
1660.0,3231150000000.0
1665.0,3415760000000.0
1670.0,3616850000000.0
1671.923,3698760000000.0
1673.846,3786070000000.0
1676.923,3938730000000.0
1680.0,4108070000000.0
1682.5,4257530000000.0
1685.0,4432990000000.0
1687.5,4622640000000.0
1690.0,4843870000000.0
1692.5,5090250000000.0
1695.0,5383380000000.0
1697.5,5718670000000.0
1700.0,6115240000000.0
1702.5,6550900000000.0
1705.0,7088120000000.0
1707.5,7672250000000.0
1710.0,8394440000000.0
1712.5,9171540000000.0
1715.0,10093000000000.0
1717.5,11080000000000.0
1720.0,12253500000000.0
1722.5,13483200000000.0
1725.0,14930000000000.0
1727.5,16428000000000.0
1730.0,18134300000000.0
1732.5,19868100000000.0
1735.0,21827000000000.0
1737.5,23813500000000.0
1740.0,26010800000000.0
1745.0,30606500000000.0
1750.0,35541900000000.0
1755.0,40729700000000.0
1760.0,45949000000000.0
1761.154,47149600000000.0
1763.462,49511300000000.0
1768.078,54325600000000.0
1772.308,58681200000000.0
1780.767,67150600000000.0
1789.226,75077600000000.0
1797.686,82638400000000.0
1806.145,89864500000000.0
1814.604,96772100000000.0
1821.539,102269000000000.0
1835.409,112958000000000.0
1849.278,123384000000000.0
1863.148,133755000000000.0
1870.769,139475000000000.0
1886.011,150959000000000.0
1901.254,162549000000000.0
1916.496,174245000000000.0
1920.0,176953000000000.0
1927.007,182387000000000.0
1941.022,193346000000000.0
1955.037,204371000000000.0
1969.051,215437000000000.0
1969.231,215580000000000.0
1969.731,215977000000000.0
1970.731,216770000000000.0
1972.731,218348000000000.0
1976.731,221518000000000.0
1984.731,227862000000000.0
2000.731,240511000000000.0
2016.731,253033000000000.0
2018.462,254413000000000.0
2021.924,257143000000000.0
2028.849,262536000000000.0
2042.697,273499000000000.0
2056.546,284533000000000.0
2067.692,293522000000000.0
2078.838,302619000000000.0
2089.984,311736000000000.0
2101.13,320968000000000.0
2112.276,330070000000000.0
2116.923,333906000000000.0
2126.218,341420000000000.0
2144.806,356201000000000.0
2163.395,370365000000000.0
2166.154,372348000000000.0
2171.672,376316000000000.0
2182.707,384166000000000.0
2193.742,391564000000000.0
2204.777,398854000000000.0
2215.385,405674000000000.0
2225.993,412475000000000.0
2236.601,419268000000000.0
2247.209,426154000000000.0
2257.817,433099000000000.0
2264.615,437636000000000.0
2278.212,446814000000000.0
2291.808,456360000000000.0
2305.405,466233000000000.0
2313.846,472635000000000.0
2330.728,486056000000000.0
2347.61,500312000000000.0
2363.077,513988000000000.0
2378.544,528044000000000.0
2394.011,542029000000000.0
2409.479,555696000000000.0
2412.307,558147000000000.0
2417.963,563048000000000.0
2429.276,572277000000000.0
2440.588,581342000000000.0
2451.901,589594000000000.0
2461.538,596548000000000.0
2480.813,609231000000000.0
2500.088,620798000000000.0
2510.769,626740000000000.0
2521.45,632577000000000.0
2532.131,638088000000000.0
2542.812,643503000000000.0
2553.494,648700000000000.0
2560.0,651842000000000.0
2573.013,657868000000000.0
2586.025,663756000000000.0
2599.038,669493000000000.0
2612.051,675072000000000.0
2625.063,680540000000000.0
2638.076,685886000000000.0
2651.089,691116000000000.0
2658.461,694039000000000.0
2673.205,699738000000000.0
2687.949,705399000000000.0
2702.693,710988000000000.0
2717.438,716367000000000.0
2732.182,721546000000000.0
2746.926,726618000000000.0
2756.923,729998000000000.0
2776.918,736563000000000.0
2796.912,742937000000000.0
2816.907,749117000000000.0
2836.902,755104000000000.0
2855.385,760464000000000.0
2873.868,765641000000000.0
2892.352,770665000000000.0
2910.835,775527000000000.0
2929.319,780228000000000.0
2945.1,784116000000000.0
2953.846,786221000000000.0
2971.338,790289000000000.0
2988.829,794216000000000.0
3006.321,798005000000000.0
3023.813,801655000000000.0
3041.304,805169000000000.0
3052.308,807310000000000.0
3063.312,809386000000000.0
3074.315,811410000000000.0
3085.319,813381000000000.0
