Wavelength,Flux
900.0,47956700.0
903.442,52560100.0
904.998,54769800.0
906.554,57063500.0
908.11,59444000.0
909.667,61916000.0
910.703,63612000.0
911.74,65351800.0
911.84,65521800.0
912.0,65794700.0
912.31,66326300.0
912.779,67138100.0
913.717,68788500.0
914.335,69896100.0
915.329,71711200.0
915.824,72630900.0
915.892,72758200.0
916.028,73018400.0
916.3,73527800.0
916.429,73769700.0
916.686,74291100.0
917.181,75207800.0
917.448,75833400.0
917.982,76802700.0
918.129,77056500.0
918.423,77970900.0
918.717,78782400.0
919.004,79373700.0
919.351,79500400.0
919.525,80045200.0
919.698,81089200.0
919.871,81729100.0
920.045,82261500.0
920.218,82739600.0
920.56,83417400.0
920.761,82922700.0
920.963,82831600.0
921.064,83044800.0
921.165,83830400.0
921.265,84884300.0
921.366,85612400.0
921.467,86129900.0
921.568,86544600.0
921.668,86915200.0
921.769,87268200.0
921.87,87602700.0
921.971,87924300.0
922.071,88234000.0
922.117,88370400.0
922.208,88635300.0
922.39,89119400.0
922.506,89368300.0
922.738,89438800.0
922.816,89148900.0
922.895,88514500.0
922.992,87466500.0
923.041,87314600.0
923.089,87418100.0
923.114,87473500.0
923.138,87526600.0
923.144,87539700.0
923.15,87553100.0
923.156,87566400.0
923.162,87579600.0
923.187,87635100.0
923.211,87688300.0
923.261,87803800.0
923.308,88175700.0
923.402,89725400.0
923.405,89774900.0
923.455,90560100.0
923.555,91725200.0
923.755,93133200.0
923.794,93337000.0
923.872,93707600.0
924.028,94354300.0
924.183,94933300.0
924.436,95815500.0
924.688,96654900.0
924.939,97463600.0
925.189,98204400.0
925.579,98917700.0
925.774,98522100.0
925.97,96232600.0
926.067,94573800.0
926.116,94348300.0
926.164,94459500.0
926.189,94518700.0
926.214,94577900.0
926.22,94592200.0
926.226,94606400.0
926.232,94620600.0
926.238,94634900.0
926.263,94694400.0
926.287,94751300.0
926.337,94874500.0
926.385,95335500.0
926.433,96311100.0
926.481,97524200.0
926.532,98707500.0
926.632,100583000.0
926.732,101842000.0
926.832,102788000.0
926.873,103105000.0
926.955,103649000.0
927.119,104543000.0
927.263,105205000.0
927.55,106397000.0
927.875,107647000.0
928.487,109897000.0
929.097,112029000.0
929.706,113781000.0
929.902,114024000.0
930.098,113725000.0
930.196,113187000.0
930.294,112205000.0
930.392,110560000.0
930.49,108167000.0
930.541,106802000.0
930.589,105888000.0
930.637,105622000.0
930.685,105745000.0
930.687,105751000.0
930.711,105814000.0
930.736,105879000.0
930.742,105895000.0
930.748,105911000.0
930.754,105927000.0
930.76,105943000.0
930.785,106008000.0
930.809,106072000.0
930.859,106206000.0
930.907,106729000.0
930.955,107916000.0
931.003,109498000.0
931.005,109565000.0
931.055,111178000.0
931.155,113966000.0
931.255,116070000.0
931.355,117622000.0
931.398,118176000.0
931.484,119103000.0
931.657,120528000.0
931.79,121388000.0
932.057,122823000.0
932.591,125239000.0
933.033,127083000.0
933.918,130676000.0
934.276,132124000.0
934.992,135003000.0
935.514,137065000.0
936.558,140393000.0
936.753,140540000.0
936.948,140170000.0
937.143,138755000.0
937.148,138696000.0
937.198,138054000.0
937.298,136270000.0
937.398,133790000.0
937.498,130545000.0
937.544,128899000.0
937.636,126077000.0
937.642,125989000.0
937.692,125662000.0
937.741,125811000.0
937.766,125887000.0
937.791,125964000.0
937.797,125983000.0
937.803,126001000.0
937.809,126020000.0
937.815,126038000.0
937.84,126115000.0
937.865,126192000.0
937.915,126348000.0
937.964,126985000.0
938.013,128503000.0
938.062,130552000.0
938.16,134703000.0
938.258,138282000.0
938.356,141234000.0
938.458,143647000.0
938.662,147023000.0
938.853,149156000.0
939.044,150830000.0
939.427,153433000.0
940.191,157561000.0
940.434,158770000.0
940.92,161151000.0
941.891,165863000.0
942.015,166463000.0
942.263,167666000.0
942.758,170082000.0
942.894,170747000.0
943.166,172082000.0
943.71,174750000.0
943.773,175063000.0
943.9,175690000.0
944.154,176948000.0
944.625,179296000.0
945.478,183564000.0
947.079,191383000.0
947.88,194517000.0
948.68,193924000.0
948.88,191695000.0
949.08,187767000.0
949.28,181043000.0
949.48,171786000.0
949.58,167890000.0
949.63,167512000.0
949.68,167710000.0
949.705,167810000.0
949.73,167910000.0
949.737,167938000.0
949.743,167961000.0
949.749,167985000.0
949.755,168009000.0
949.781,168113000.0
949.806,168213000.0
949.856,168414000.0
949.906,169196000.0
949.956,171178000.0
950.006,173939000.0
950.056,176863000.0
950.156,182514000.0
950.356,192010000.0
950.406,193947000.0
950.506,197311000.0
950.706,202656000.0
950.806,204730000.0
951.005,208095000.0
951.404,212867000.0
951.803,216420000.0
952.202,219438000.0
952.407,220878000.0
952.816,223633000.0
953.635,228903000.0
954.008,231266000.0
954.753,235982000.0
955.609,241388000.0
957.211,251704000.0
958.812,262319000.0
960.413,273314000.0
960.776,275867000.0
961.14,278439000.0
961.376,280116000.0
961.611,281794000.0
962.081,285171000.0
963.021,292015000.0
963.251,293708000.0
963.71,297121000.0
964.629,304058000.0
964.89,306055000.0
965.412,310083000.0
966.456,318276000.0
966.53,318864000.0
966.678,320042000.0
966.975,322412000.0
967.567,327193000.0
968.169,332094000.0
969.372,342086000.0
969.809,345776000.0
970.683,353253000.0
971.448,359804000.0
971.858,363050000.0
972.268,366050000.0
972.37,366763000.0
972.473,367486000.0
972.499,367668000.0
972.524,367843000.0
972.531,367893000.0
972.537,367935000.0
972.543,367978000.0
972.55,368026000.0
972.575,368202000.0
972.601,368385000.0
972.653,368751000.0
972.703,369150000.0
972.803,369965000.0
972.806,369990000.0
972.856,370398000.0
972.956,371215000.0
973.156,372852000.0
973.216,373344000.0
973.336,374354000.0
973.576,376699000.0
973.626,377190000.0
973.726,378174000.0
973.926,380152000.0
974.326,384245000.0
975.126,392483000.0
975.265,393926000.0
975.544,396762000.0
976.101,402448000.0
976.905,410613000.0
978.512,427320000.0
978.544,427654000.0
978.608,428325000.0
978.735,429663000.0
978.989,432346000.0
979.498,437756000.0
980.184,445151000.0
981.556,460182000.0
981.823,463141000.0
982.357,469094000.0
983.424,481204000.0
983.463,481648000.0
983.54,482534000.0
983.694,484313000.0
984.003,487890000.0
984.62,495119000.0
985.102,500832000.0
986.065,512424000.0
986.742,520718000.0
988.095,537698000.0
988.381,541350000.0
988.953,548727000.0
990.021,562763000.0
991.66,584906000.0
993.3,607849000.0
996.58,656195000.0
996.65,657267000.0
996.79,659414000.0
997.07,663727000.0
997.63,672442000.0
998.75,690198000.0
1000.0,710539000.0
1001.912,742691000.0
1003.824,776038000.0
1005.553,807392000.0
1007.282,839913000.0
1009.011,873606000.0
1010.74,908415000.0
1012.469,944375000.0
1014.199,981374000.0
1015.928,1018880000.0
1017.657,1056490000.0
1019.386,1092360000.0
1021.115,1119880000.0
1021.979,1124970000.0
1022.844,1117130000.0
1023.276,1106590000.0
1023.708,1091100000.0
1024.141,1068720000.0
1024.573,1040130000.0
1024.624,1035950000.0
1024.674,1031870000.0
1024.724,1027620000.0
1024.774,1023130000.0
1024.824,1018490000.0
1024.874,1013480000.0
1024.924,1007980000.0
1024.974,1002070000.0
1025.006,998366000.0
1025.069,990608000.0
1025.196,970817000.0
1025.317,945997000.0
1025.438,916268000.0
1025.546,888167000.0
1025.6,879539000.0
1025.654,878270000.0
1025.681,878734000.0
1025.708,879206000.0
1025.715,879329000.0
1025.72,879417000.0
1025.722,879453000.0
1025.729,879576000.0
1025.736,879699000.0
1025.763,880172000.0
1025.79,880650000.0
1025.844,882535000.0
1025.898,890940000.0
1025.952,905404000.0
1026.005,921867000.0
1026.056,937129000.0
1026.106,951730000.0
1026.156,965368000.0
1026.206,978240000.0
1026.256,990095000.0
1026.306,1001080000.0
1026.356,1010970000.0
1026.406,1020140000.0
1026.438,1025440000.0
1026.501,1035460000.0
1026.628,1054720000.0
1026.87,1086090000.0
1027.112,1113970000.0
1027.597,1165710000.0
1028.082,1209930000.0
1028.566,1250090000.0
1028.6,1252540000.0
1028.668,1257420000.0
1028.803,1267200000.0
1029.073,1286280000.0
1029.614,1319290000.0
1030.329,1357010000.0
1031.758,1423230000.0
1032.058,1435530000.0
1032.658,1458780000.0
1033.787,1500670000.0
1035.516,1561970000.0
1037.246,1626680000.0
1038.975,1691500000.0
1040.704,1756610000.0
1042.433,1823510000.0
1044.162,1892470000.0
1045.892,1963790000.0
1047.621,2036770000.0
1048.81,2088330000.0
1050.0,2141160000.0
1052.38,2250090000.0
1055.0,2375200000.0
1057.62,2506500000.0
1060.0,2631220000.0
1064.76,2898960000.0
1065.0,2913090000.0
1065.48,2941450000.0
1066.441,2998650000.0
1068.363,3115930000.0
1070.0,3218770000.0
1073.273,3433610000.0
1075.0,3551320000.0
1078.453,3798480000.0
1080.0,3914870000.0
1081.538,4033170000.0
1083.077,4154430000.0
1086.155,4406220000.0
1086.538,4438440000.0
1087.304,4503510000.0
1088.835,4635950000.0
1090.0,4738500000.0
1092.33,4949850000.0
1095.0,5202380000.0
1097.67,5465640000.0
1100.0,5703620000.0
1104.661,6207660000.0
1105.0,6245830000.0
1105.679,6322770000.0
1107.036,6478300000.0
1109.751,6797890000.0
1110.0,6827890000.0
1110.498,6888190000.0
1111.494,7010090000.0
1113.486,7259200000.0
1115.0,7453520000.0
1118.027,7851600000.0
1120.0,8118540000.0
1123.945,8667680000.0
1125.0,8817340000.0
1127.109,9113770000.0
1130.0,9510120000.0
1131.154,9669090000.0
1132.308,9826020000.0
1134.616,10138900000.0
1136.154,10341100000.0
1139.23,10720700000.0
1140.0,10805800000.0
1141.539,10974900000.0
1144.617,11284100000.0
1145.0,11322200000.0
1145.766,11386300000.0
1147.297,11520100000.0
1150.0,11736600000.0
1152.703,11937900000.0
1155.406,12113500000.0
1158.109,12271700000.0
1160.812,12440700000.0
1163.516,12617500000.0
1165.769,12795400000.0
1170.276,13261700000.0
1174.783,13866100000.0
1179.29,14576700000.0
1181.538,14969200000.0
1185.628,15752000000.0
1189.718,16598300000.0
1191.767,17025200000.0
1193.816,17443200000.0
1195.866,17847900000.0
1197.915,18243700000.0
1199.964,18636500000.0
1202.014,19026200000.0
1204.063,19390100000.0
1206.113,19696400000.0
1208.162,19905700000.0
1210.211,20000800000.0
1212.26,20012000000.0
1212.311,20011500000.0
1212.361,20011500000.0
1212.411,20011800000.0
1212.461,20012500000.0
1212.511,20013000000.0
1212.561,20012100000.0
1212.611,20011500000.0
1212.661,20011500000.0
1212.711,20012700000.0
1212.761,20014200000.0
1212.812,20016000000.0
1212.862,20018100000.0
1212.912,20020500000.0
1212.962,20023300000.0
1213.012,20026000000.0
1213.062,20028200000.0
1213.112,20030600000.0
1213.162,20033300000.0
1213.212,20036300000.0
1213.262,20039600000.0
1213.312,20043100000.0
1213.362,20046900000.0
1213.412,20051700000.0
1213.462,20057000000.0
1213.512,20062300000.0
1213.562,20067100000.0
1213.612,20072100000.0
1213.662,20077400000.0
1213.712,20082800000.0
1213.762,20088400000.0
1213.812,20094100000.0
1213.863,20100000000.0
1213.913,20106100000.0
1213.963,20112300000.0
1214.013,20118800000.0
1214.063,20125900000.0
1214.113,20133000000.0
1214.163,20140300000.0
1214.213,20147600000.0
1214.263,20155000000.0
1214.31,20162100000.0
1214.404,20176400000.0
1214.593,20211100000.0
1214.822,20258500000.0
1215.281,20321000000.0
1215.335,20314000000.0
1215.444,20260700000.0
1215.463,20245600000.0
1215.513,20212300000.0
1215.563,20202000000.0
1215.591,20208200000.0
1215.623,20217000000.0
1215.655,20225800000.0
1215.663,20228000000.0
1215.67,20229900000.0
1215.679,20232400000.0
1215.687,20234600000.0
1215.719,20243400000.0
1215.751,20252200000.0
1215.815,20288300000.0
1215.879,20376300000.0
1216.007,20555400000.0
1216.263,20806900000.0
1216.519,21035000000.0
1216.52,21036000000.0
1216.57,21073900000.0
1216.62,21112200000.0
1216.67,21152100000.0
1216.72,21193700000.0
1216.77,21236400000.0
1216.82,21280400000.0
1216.87,21325800000.0
1216.92,21372800000.0
1216.97,21421200000.0
1217.021,21466500000.0
1217.032,21475400000.0
1217.082,21514800000.0
1217.132,21555200000.0
1217.182,21596400000.0
1217.232,21641000000.0
1217.282,21687100000.0
1217.332,21735000000.0
1217.382,21784900000.0
1217.432,21836900000.0
1217.482,21890600000.0
1217.532,21935100000.0
1217.583,21974800000.0
1217.633,22015600000.0
1217.683,22057600000.0
1217.733,22100900000.0
1217.783,22145600000.0
1217.833,22192600000.0
1217.883,22241300000.0
1217.933,22292000000.0
1217.983,22344900000.0
1218.033,22391300000.0
1218.083,22434600000.0
1218.133,22479000000.0
1218.183,22523700000.0
1218.233,22570000000.0
1218.283,22617900000.0
1218.333,22667600000.0
1218.383,22719100000.0
1218.433,22772500000.0
1218.483,22827100000.0
1218.533,22870400000.0
1218.583,22907900000.0
1218.634,22946200000.0
1218.684,22985200000.0
1218.734,23025000000.0
1218.784,23065800000.0
1218.834,23107500000.0
1218.884,23150100000.0
1218.934,23193800000.0
1218.984,23238600000.0
1219.034,23280700000.0
1219.081,23319000000.0
1219.175,23398000000.0
1219.364,23568500000.0
1219.741,23898000000.0
1220.495,24470700000.0
1221.131,24935500000.0
1222.404,25648100000.0
1223.18,26141700000.0
1224.733,27048500000.0
1225.229,27295100000.0
1226.221,27733500000.0
1227.279,28159100000.0
1229.328,29013400000.0
1231.378,29919900000.0
1233.427,30837000000.0
1235.476,31750400000.0
1237.526,32668500000.0
1239.575,33582100000.0
1241.625,34510700000.0
1245.725,36449900000.0
1249.825,38493800000.0
1250.812,38985200000.0
1252.786,40023900000.0
1256.733,42150300000.0
1260.0,44038300000.0
1263.267,46090700000.0
1265.0,47191100000.0
1268.466,49371400000.0
1270.0,50398200000.0
1273.068,52498100000.0
1275.0,53822400000.0
1278.863,56735600000.0
1280.0,57597900000.0
1282.273,59315300000.0
1285.0,61303900000.0
1287.727,63390200000.0
1290.0,65190100000.0
1294.547,69043000000.0
1295.0,69447200000.0
1295.906,70263400000.0
1297.719,71898000000.0
1300.0,73956200000.0
1305.0,78438600000.0
1310.0,83147000000.0
1315.0,88120100000.0
1320.0,93355100000.0
1325.0,98879600000.0
1330.0,104731000000.0
1335.0,110877000000.0
1340.0,117254000000.0
1345.0,123869000000.0
1350.0,130809000000.0
1355.0,138150000000.0
1360.0,145756000000.0
1365.0,153725000000.0
1370.0,162107000000.0
1374.231,169425000000.0
1378.462,176987000000.0
1379.231,178395000000.0
1380.0,179813000000.0
1381.538,182679000000.0
1384.614,188530000000.0
1385.0,189274000000.0
1385.771,190769000000.0
1387.314,193787000000.0
1390.0,199130000000.0
1395.0,209411000000.0
1400.0,220137000000.0
1405.0,231343000000.0
1410.0,243083000000.0
1415.0,255308000000.0
1420.0,267969000000.0
1425.0,281144000000.0
1430.0,294861000000.0
1435.0,309007000000.0
1440.0,323520000000.0
1445.0,338491000000.0
1450.0,353988000000.0
1455.0,370012000000.0
1460.0,386633000000.0
1465.0,403855000000.0
1470.0,422001000000.0
1473.462,435067000000.0
1476.923,448566000000.0
1478.462,454719000000.0
1480.0,460971000000.0
1483.076,473785000000.0
1485.0,482011000000.0
1488.848,498864000000.0
1490.0,504011000000.0
1492.304,514398000000.0
1495.0,526640000000.0
1500.0,549500000000.0
1505.0,572772000000.0
1510.0,597112000000.0
1515.0,623005000000.0
1520.0,650121000000.0
1525.0,677170000000.0
1530.0,702814000000.0
1535.0,727065000000.0
1540.0,751195000000.0
1545.0,776805000000.0
1550.0,804694000000.0
1555.0,834798000000.0
1560.0,866309000000.0
1565.0,898030000000.0
1570.0,929077000000.0
1572.692,945501000000.0
1575.385,961829000000.0
1577.692,975901000000.0
1580.0,990166000000.0
1584.616,1019690000000.0
1585.0,1022240000000.0
1585.768,1027360000000.0
1587.304,1037770000000.0
1590.0,1056650000000.0
1595.0,1094060000000.0
1600.0,1134920000000.0
1605.0,1179590000000.0
1610.0,1228430000000.0
1615.0,1281770000000.0
1620.0,1339970000000.0
1625.0,1403320000000.0
1630.0,1471880000000.0
1635.0,1545650000000.0
1640.0,1624980000000.0
1645.0,1709270000000.0
1650.0,1798680000000.0
1655.0,1892800000000.0
1660.0,1992750000000.0
1665.0,2098620000000.0
1670.0,2211640000000.0
1671.923,2256660000000.0
1673.846,2303720000000.0
1676.923,2383500000000.0
1680.0,2470670000000.0
1685.0,2628070000000.0
1687.5,2715890000000.0
1690.0,2818550000000.0
1692.5,2927510000000.0
1695.0,3055440000000.0
1697.5,3195160000000.0
1700.0,3360450000000.0
1702.5,3545300000000.0
1705.0,3762060000000.0
1707.5,4000610000000.0
1710.0,4284450000000.0
1712.5,4590530000000.0
1715.0,4963370000000.0
1717.5,5353720000000.0
1720.0,5814690000000.0
1722.5,6300200000000.0
1725.0,6859940000000.0
1727.5,7442010000000.0
1730.0,8116680000000.0
1732.5,8804030000000.0
1735.0,9575590000000.0
1740.0,11224300000000.0
1742.5,12094600000000.0
1745.0,13047200000000.0
1750.0,15026900000000.0
1755.0,17142800000000.0
1760.0,19309500000000.0
1761.154,19812400000000.0
1763.462,20802100000000.0
1768.078,22833400000000.0
1772.308,24705000000000.0
1780.767,28426000000000.0
1797.686,35534900000000.0
1814.604,42376100000000.0
1821.539,45133700000000.0
1835.409,50643300000000.0
1849.278,56207000000000.0
1863.148,61906100000000.0
1870.769,65118600000000.0
1886.011,71717200000000.0
1901.254,78560900000000.0
1916.496,85654500000000.0
1920.0,87322400000000.0
1927.007,90698500000000.0
1941.022,97622600000000.0
1955.037,104740000000000.0
1969.051,112030000000000.0
1969.231,112125000000000.0
1969.731,112389000000000.0
1970.731,112918000000000.0
1972.731,113972000000000.0
1976.731,116099000000000.0
1984.731,120389000000000.0
2000.731,129078000000000.0
2016.731,137839000000000.0
2018.462,138817000000000.0
2021.924,140756000000000.0
2028.849,144603000000000.0
2042.697,152527000000000.0
2056.546,160635000000000.0
2067.692,167343000000000.0
2078.838,174231000000000.0
2089.984,181221000000000.0
2101.13,188396000000000.0
2112.276,195537000000000.0
2116.923,198576000000000.0
2126.218,204555000000000.0
2144.806,216438000000000.0
2163.395,227918000000000.0
2166.154,229517000000000.0
2171.672,232730000000000.0
2182.707,239108000000000.0
2193.742,245072000000000.0
2204.777,250962000000000.0
2215.385,256466000000000.0
2225.993,261989000000000.0
2236.601,267537000000000.0
2247.209,273219000000000.0
2257.817,278999000000000.0
2264.615,282817000000000.0
2278.212,290622000000000.0
2291.808,298907000000000.0
2305.405,307647000000000.0
2313.846,313432000000000.0
2330.728,325854000000000.0
2347.61,339468000000000.0
2363.077,352912000000000.0
2378.544,367102000000000.0
2394.011,381492000000000.0
2409.479,395719000000000.0
2412.307,398286000000000.0
2417.963,403451000000000.0
2429.276,413107000000000.0
2440.588,422655000000000.0
2451.901,431204000000000.0
2461.538,438452000000000.0
2480.813,451438000000000.0
2500.088,463049000000000.0
2510.769,468891000000000.0
2521.45,474643000000000.0
2532.131,479972000000000.0
2542.812,485209000000000.0
2553.494,490174000000000.0
2560.0,493185000000000.0
2573.013,498897000000000.0
2586.025,504472000000000.0
2599.038,509889000000000.0
2612.051,515137000000000.0
2625.063,520284000000000.0
2638.076,525315000000000.0
2651.089,530236000000000.0
2658.461,532992000000000.0
2673.205,538374000000000.0
2687.949,543777000000000.0
2702.693,549156000000000.0
2717.438,554234000000000.0
2732.182,559165000000000.0
2746.926,564017000000000.0
2756.923,567262000000000.0
2776.918,573609000000000.0
2796.912,579810000000000.0
2816.907,585862000000000.0
2836.902,591765000000000.0
2855.385,597089000000000.0
2873.868,602257000000000.0
2892.352,607297000000000.0
2910.835,612207000000000.0
2929.319,616990000000000.0
2945.1,620972000000000.0
2953.846,623138000000000.0
2971.338,627354000000000.0
2988.829,631455000000000.0
3006.321,635445000000000.0
3023.813,639320000000000.0
3041.304,643083000000000.0
3052.308,645392000000000.0
3063.312,647647000000000.0
3074.315,649859000000000.0
3085.319,652027000000000.0
3096.323,654151000000000.0
3107.326,656232000000000.0
3118.33,658269000000000.0
3129.334,660263000000000.0
3140.337,662215000000000.0
3150.769,664025000000000.0
3161.201,665798000000000.0
3171.632,667533000000000.0
3182.064,669230000000000.0
3187.7,670132000000000.0
3198.972,671901000000000.0
3210.244,673627000000000.0
3221.516,675311000000000.0
3232.788,676951000000000.0
3244.06,678548000000000.0
3249.231,679267000000000.0
3259.573,680680000000000.0
3269.916,682056000000000.0
3280.258,683397000000000.0
3290.6,684702000000000.0
3300.942,685973000000000.0
3311.285,687209000000000.0
3321.627,688411000000000.0
3331.969,689578000000000.0
3342.312,690712000000000.0
3347.692,691289000000000.0
3358.453,692418000000000.0
3369.213,693517000000000.0
3379.974,694581000000000.0
3390.735,695608000000000.0
