Wavelength,Flux
900.0,486497000.0
903.442,528511000.0
904.998,548549000.0
906.554,569267000.0
908.11,590683000.0
909.667,612832000.0
910.703,627979000.0
911.74,643476000.0
911.84,644989000.0
912.0,647415000.0
912.31,652139000.0
912.779,659346000.0
913.717,673973000.0
914.335,688622000.0
914.644,701504000.0
914.953,715191000.0
915.141,704186000.0
915.329,699790000.0
915.423,701324000.0
915.517,710646000.0
915.611,716209000.0
915.658,709966000.0
915.705,706187000.0
915.755,706759000.0
915.805,707580000.0
915.824,707892000.0
915.874,708716000.0
915.892,709014000.0
915.942,710097000.0
915.992,717812000.0
916.042,734090000.0
916.092,747603000.0
916.142,751714000.0
916.192,744730000.0
916.242,728848000.0
916.292,717437000.0
916.342,716462000.0
916.429,717912000.0
916.516,719365000.0
916.603,732959000.0
916.69,782463000.0
916.777,818174000.0
916.821,822370000.0
916.865,815891000.0
916.908,798496000.0
916.952,773834000.0
917.002,743723000.0
917.052,729476000.0
917.102,729199000.0
917.181,730541000.0
917.26,731887000.0
917.34,741610000.0
917.394,777541000.0
917.448,828433000.0
917.502,877632000.0
917.556,917125000.0
917.61,943137000.0
917.664,953819000.0
917.718,947325000.0
917.772,922882000.0
917.827,881135000.0
917.881,827753000.0
917.908,800610000.0
917.935,775168000.0
917.962,756854000.0
917.989,747470000.0
918.016,744949000.0
918.043,745259000.0
918.097,746192000.0
918.129,746745000.0
918.193,747855000.0
918.225,748411000.0
918.257,750120000.0
918.29,759854000.0
918.322,782809000.0
918.354,818303000.0
918.386,859575000.0
918.45,948629000.0
918.514,1032230000.0
918.546,1068230000.0
918.578,1099190000.0
918.611,1125720000.0
918.643,1148220000.0
918.675,1165900000.0
918.707,1178340000.0
918.739,1185340000.0
918.771,1186940000.0
918.803,1182860000.0
918.835,1172690000.0
918.867,1156180000.0
918.9,1133300000.0
918.932,1104980000.0
918.964,1070530000.0
919.004,1018160000.0
919.054,943978000.0
919.104,869207000.0
919.154,804564000.0
919.204,770690000.0
919.254,766392000.0
919.304,767273000.0
919.351,768106000.0
919.445,769774000.0
919.492,774188000.0
919.539,803609000.0
919.586,866648000.0
919.633,946736000.0
919.68,1035720000.0
919.727,1124300000.0
919.775,1208680000.0
919.822,1285820000.0
919.869,1354850000.0
919.916,1415490000.0
919.963,1467110000.0
920.01,1509780000.0
920.057,1543010000.0
920.104,1567030000.0
920.151,1581490000.0
920.198,1585990000.0
920.245,1580070000.0
920.292,1562870000.0
920.339,1533920000.0
920.386,1492200000.0
920.433,1437450000.0
920.48,1370010000.0
920.52,1303750000.0
920.56,1230070000.0
920.6,1150030000.0
920.64,1067260000.0
920.719,909534000.0
920.759,846843000.0
920.799,807714000.0
920.839,795509000.0
920.878,795573000.0
920.958,797028000.0
920.963,797121000.0
921.013,798036000.0
921.113,806358000.0
921.163,849662000.0
921.213,934541000.0
921.263,1041270000.0
921.313,1160810000.0
921.413,1404060000.0
921.513,1630720000.0
921.613,1827110000.0
921.663,1913220000.0
921.713,1991180000.0
921.763,2059160000.0
921.813,2118630000.0
921.863,2170220000.0
921.913,2213130000.0
921.963,2246950000.0
922.013,2271470000.0
922.063,2286940000.0
922.113,2292910000.0
922.117,2292980000.0
922.167,2288100000.0
922.217,2272610000.0
922.267,2245750000.0
922.317,2206180000.0
922.367,2153850000.0
922.417,2089170000.0
922.467,2011290000.0
922.506,1940150000.0
922.556,1838840000.0
922.606,1726200000.0
922.656,1603560000.0
922.706,1472580000.0
922.756,1338240000.0
922.856,1074320000.0
922.895,984878000.0
922.945,892834000.0
922.992,845251000.0
923.042,836024000.0
923.089,836883000.0
923.114,837362000.0
923.138,837820000.0
923.144,837934000.0
923.15,838050000.0
923.156,838165000.0
923.162,838279000.0
923.187,838759000.0
923.211,839218000.0
923.261,840232000.0
923.308,851366000.0
923.358,906458000.0
923.405,997989000.0
923.455,1121400000.0
923.505,1261480000.0
923.555,1411800000.0
923.605,1565580000.0
923.705,1874040000.0
923.794,2139970000.0
923.883,2388020000.0
923.972,2615260000.0
924.061,2818890000.0
924.15,2998310000.0
924.183,3057560000.0
924.249,3167390000.0
924.314,3264060000.0
924.38,3348620000.0
924.436,3411710000.0
924.549,3512510000.0
924.661,3578430000.0
924.688,3588850000.0
924.741,3603000000.0
924.848,3603380000.0
924.939,3571530000.0
925.03,3508220000.0
925.121,3411320000.0
925.189,3314590000.0
925.257,3195620000.0
925.325,3053530000.0
925.393,2887780000.0
925.461,2700690000.0
925.529,2494740000.0
925.579,2333450000.0
925.679,1992800000.0
925.779,1646510000.0
925.827,1484940000.0
925.874,1328860000.0
925.922,1185650000.0
925.97,1060210000.0
926.02,958329000.0
926.067,906155000.0
926.117,896612000.0
926.165,897554000.0
926.189,898043000.0
926.214,898551000.0
926.22,898673000.0
926.226,898796000.0
926.232,898918000.0
926.238,899040000.0
926.263,899550000.0
926.287,900039000.0
926.337,901105000.0
926.385,912710000.0
926.435,972693000.0
926.482,1072620000.0
926.532,1209080000.0
926.582,1366980000.0
926.632,1539780000.0
926.682,1721930000.0
926.732,1910390000.0
926.832,2300650000.0
926.873,2463770000.0
926.955,2786430000.0
927.119,3403710000.0
927.191,3650640000.0
927.263,3885850000.0
927.335,4103450000.0
927.407,4307570000.0
927.55,4669560000.0
927.622,4831270000.0
927.694,4980450000.0
927.837,5242600000.0
927.875,5303870000.0
927.951,5417320000.0
928.102,5608390000.0
928.253,5758930000.0
928.404,5867150000.0
928.487,5907880000.0
928.653,5946760000.0
928.736,5941880000.0
928.819,5920620000.0
928.985,5823910000.0
929.097,5714060000.0
929.209,5566580000.0
929.32,5371370000.0
929.432,5126360000.0
929.487,4985560000.0
929.543,4831410000.0
929.655,4485400000.0
929.706,4308440000.0
929.808,3923590000.0
929.911,3506580000.0
930.013,3059420000.0
930.098,2681350000.0
930.183,2307580000.0
930.268,1949060000.0
930.311,1777990000.0
930.353,1615280000.0
930.396,1460110000.0
930.439,1318940000.0
930.489,1174080000.0
930.491,1168140000.0
930.541,1058000000.0
930.589,1001550000.0
930.639,992837000.0
930.687,993888000.0
930.711,994422000.0
930.736,994980000.0
930.742,995113000.0
930.748,995247000.0
930.754,995381000.0
930.76,995515000.0
930.785,996072000.0
930.809,996609000.0
930.859,997759000.0
930.907,1008710000.0
930.957,1071890000.0
931.005,1181770000.0
931.055,1329380000.0
931.105,1501670000.0
931.155,1692510000.0
931.205,1896080000.0
931.255,2110040000.0
931.305,2333720000.0
931.355,2565320000.0
931.398,2770530000.0
931.484,3189240000.0
931.657,4030760000.0
931.79,4656130000.0
931.923,5239570000.0
932.057,5779280000.0
932.19,6267860000.0
932.324,6716080000.0
932.457,7114100000.0
932.591,7474550000.0
932.724,7797790000.0
932.857,8090690000.0
932.991,8354590000.0
933.033,8433270000.0
933.117,8583230000.0
933.286,8852530000.0
933.455,9087130000.0
933.624,9289230000.0
933.793,9456390000.0
933.962,9594480000.0
934.276,9777380000.0
934.433,9831160000.0
934.59,9857830000.0
934.747,9854710000.0
934.903,9818900000.0
935.06,9746840000.0
935.217,9634270000.0
935.366,9491680000.0
935.514,9292650000.0
935.662,9041350000.0
935.811,8736000000.0
935.959,8368240000.0
936.107,7931490000.0
936.256,7428710000.0
936.404,6848420000.0
936.553,6203190000.0
936.701,5493670000.0
936.753,5229680000.0
936.857,4688040000.0
936.961,4129980000.0
937.065,3561640000.0
937.148,3117490000.0
937.231,2688680000.0
937.314,2282880000.0
937.356,2090740000.0
937.397,1907660000.0
937.439,1733390000.0
937.48,1573390000.0
937.512,1459460000.0
937.544,1360300000.0
937.576,1276210000.0
937.608,1208530000.0
937.642,1170260000.0
937.692,1161410000.0
937.741,1162660000.0
937.766,1163290000.0
937.791,1163940000.0
937.797,1164090000.0
937.803,1164240000.0
937.809,1164400000.0
937.815,1164550000.0
937.84,1165200000.0
937.865,1165840000.0
937.915,1167140000.0
937.964,1178630000.0
938.014,1251310000.0
938.062,1375960000.0
938.112,1542900000.0
938.162,1738120000.0
938.212,1954950000.0
938.262,2186230000.0
938.312,2430120000.0
938.362,2686210000.0
938.458,3206490000.0
938.554,3752390000.0
938.65,4313500000.0
938.842,5420280000.0
938.853,5481070000.0
938.903,5763130000.0
939.003,6306820000.0
939.203,7346460000.0
939.303,7833450000.0
939.403,8297440000.0
939.503,8731500000.0
939.703,9544450000.0
939.903,10268700000.0
940.103,10920000000.0
940.303,11505500000.0
940.434,11855100000.0
940.696,12473900000.0
940.958,13010000000.0
941.22,13501100000.0
941.482,13918100000.0
941.744,14292800000.0
942.015,14641600000.0
942.556,15222100000.0
942.894,15519500000.0
943.57,15997100000.0
943.773,16093500000.0
944.18,16224800000.0
944.625,16275600000.0
945.07,16207200000.0
945.478,16024100000.0
945.886,15700200000.0
946.09,15480800000.0
946.294,15218000000.0
946.497,14902700000.0
946.701,14531800000.0
946.905,14100100000.0
947.079,13673700000.0
947.253,13182800000.0
947.427,12636200000.0
947.6,12027100000.0
947.774,11350200000.0
947.948,10596300000.0
948.122,9770020000.0
948.296,8855580000.0
948.47,7856620000.0
948.575,7217810000.0
948.68,6549600000.0
948.89,5162440000.0
949.08,3903240000.0
949.175,3306310000.0
949.27,2751550000.0
949.317,2491620000.0
949.365,2246190000.0
949.412,2021370000.0
949.459,1821070000.0
949.48,1746290000.0
949.53,1595620000.0
949.58,1513710000.0
949.63,1505530000.0
949.68,1507140000.0
949.705,1507950000.0
949.73,1508750000.0
949.737,1508980000.0
949.743,1509170000.0
949.749,1509370000.0
949.755,1509560000.0
949.781,1510400000.0
949.806,1511210000.0
949.856,1512840000.0
949.906,1524310000.0
949.956,1610210000.0
950.006,1765910000.0
950.056,1966970000.0
950.106,2203820000.0
950.156,2465870000.0
950.206,2745820000.0
950.256,3041620000.0
950.306,3351260000.0
950.406,4009660000.0
950.456,4353640000.0
950.556,5057600000.0
950.756,6483510000.0
950.806,6834010000.0
950.906,7527510000.0
951.106,8851240000.0
951.307,10086700000.0
951.507,11215600000.0
951.707,12258200000.0
951.907,13212800000.0
952.107,14085300000.0
952.307,14892500000.0
952.407,15268900000.0
952.606,15963500000.0
953.004,17197400000.0
953.402,18266100000.0
953.8,19220700000.0
954.008,19677800000.0
954.424,20510600000.0
954.841,21243900000.0
955.257,21909400000.0
955.609,22425600000.0
956.313,23377400000.0
957.211,24436100000.0
958.109,25397700000.0
958.812,26104200000.0
960.218,27439900000.0
960.413,27621500000.0
960.776,28037700000.0
961.14,28365600000.0
961.376,28577800000.0
961.611,28788900000.0
962.081,29210900000.0
963.021,30044100000.0
963.251,30245700000.0
963.71,30649100000.0
964.629,31453100000.0
964.89,31674900000.0
965.412,32116200000.0
966.456,32967300000.0
966.53,33022900000.0
966.678,33134400000.0
966.975,33344700000.0
967.567,33734200000.0
968.169,34055100000.0
968.771,34268700000.0
969.372,34303200000.0
969.809,34260700000.0
970.683,33994700000.0
970.874,33836400000.0
971.065,33692600000.0
971.161,33625600000.0
971.257,33561300000.0
971.305,33530500000.0
971.352,33373700000.0
971.4,32892000000.0
971.448,32466200000.0
971.544,31741000000.0
971.639,31147200000.0
971.735,30647100000.0
971.858,30085600000.0
972.104,28764700000.0
972.268,27786700000.0
972.37,27260700000.0
972.473,26788800000.0
972.499,26677100000.0
972.524,26571900000.0
972.531,26542700000.0
972.537,26518000000.0
972.543,26493200000.0
972.55,26464700000.0
972.575,26363800000.0
972.601,26261400000.0
972.653,26063600000.0
972.703,25984300000.0
972.803,25861900000.0
972.806,25858200000.0
972.856,25798800000.0
972.956,25683200000.0
973.156,25464600000.0
973.216,25402000000.0
973.336,25323400000.0
973.456,25522200000.0
973.576,25726400000.0
973.626,25812800000.0
973.726,25988300000.0
973.926,26350500000.0
974.126,26811600000.0
974.326,27351400000.0
974.726,28514200000.0
975.265,30100600000.0
975.804,31516900000.0
976.344,32761300000.0
976.905,33940300000.0
977.466,35220100000.0
978.028,36806600000.0
978.544,38134000000.0
979.576,41033300000.0
979.88,42152100000.0
980.184,43286400000.0
980.792,45563400000.0
981.307,47029200000.0
981.823,48112100000.0
982.854,50140300000.0
983.463,51201800000.0
984.681,53515400000.0
985.102,54331600000.0
985.945,55905100000.0
986.742,57364300000.0
988.336,60361000000.0
988.381,60422300000.0
988.47,60545300000.0
988.649,60787200000.0
989.007,61321500000.0
989.723,62532400000.0
990.021,62973900000.0
990.617,63603500000.0
991.66,64859300000.0
992.48,66490100000.0
993.3,68745100000.0
994.94,73891700000.0
995.76,75279500000.0
996.58,77084300000.0
996.65,77310200000.0
996.79,77767300000.0
997.07,78700200000.0
997.63,81082800000.0
998.19,83580700000.0
999.31,87937200000.0
999.483,88406100000.0
999.655,88909800000.0
999.698,89036400000.0
999.741,89165000000.0
999.784,91236300000.0
999.828,91371500000.0
999.871,91502200000.0
999.914,91621400000.0
999.957,91719400000.0
1000.0,91824700000.0
1000.05,91943300000.0
1000.15,92187300000.0
1000.35,92674900000.0
1000.55,93143100000.0
1000.75,93492500000.0
1000.95,93836300000.0
1001.15,94150500000.0
1001.35,94358700000.0
1001.55,94537200000.0
1001.75,94743900000.0
1001.912,94908300000.0
1002.236,95217400000.0
1002.884,95691100000.0
1003.824,95996300000.0
1004.688,95858700000.0
1005.553,95123600000.0
1007.282,92812500000.0
1008.146,91127600000.0
1009.011,89185000000.0
1010.74,84934600000.0
1012.469,80739000000.0
1014.199,77008700000.0
1015.928,73889500000.0
1017.657,71022000000.0
1019.386,67856600000.0
1020.25,65661800000.0
1021.115,62661300000.0
1021.547,60707400000.0
1021.979,58386000000.0
1022.412,55553900000.0
1022.844,52072500000.0
1023.06,50034700000.0
1023.276,47669900000.0
1023.492,45275900000.0
1023.708,42197900000.0
1023.925,39135400000.0
1024.141,35344500000.0
1024.357,31406300000.0
1024.573,27277600000.0
1024.624,26209800000.0
1024.674,25181700000.0
1024.724,24156800000.0
1024.774,23115400000.0
1024.824,22084800000.0
1024.874,21042900000.0
1024.924,19971900000.0
1024.974,18892500000.0
1025.006,18211300000.0
1025.069,16878600000.0
1025.196,14073300000.0
1025.322,11228200000.0
1025.38,9968190000.0
1025.438,8787880000.0
1025.465,8278760000.0
1025.492,7822980000.0
1025.519,7428160000.0
1025.546,7109390000.0
1025.596,6774490000.0
1025.646,6707730000.0
1025.654,6708030000.0
1025.681,6711050000.0
1025.708,6714320000.0
1025.715,6715150000.0
1025.72,6715760000.0
1025.722,6716010000.0
1025.729,6716860000.0
1025.736,6717690000.0
1025.763,6720960000.0
1025.79,6724240000.0
1025.844,6753670000.0
1025.871,6836010000.0
1025.898,7008810000.0
1025.925,7276670000.0
1025.952,7634850000.0
1025.979,8066280000.0
1026.005,8555030000.0
1026.056,9577330000.0
1026.106,10679000000.0
1026.156,11822700000.0
1026.206,12989000000.0
1026.256,14170300000.0
1026.306,15357700000.0
1026.356,16530100000.0
1026.406,17683400000.0
1026.438,18393700000.0
1026.501,19783900000.0
1026.628,22609000000.0
1026.87,27822200000.0
1027.112,32801900000.0
1027.355,37469300000.0
1027.597,41934300000.0
1027.839,45733100000.0
1028.082,49379800000.0
1028.324,52579300000.0
1028.566,55697400000.0
1028.6,56066900000.0
1028.668,56800600000.0
1028.803,58243100000.0
1029.073,60993700000.0
1029.344,63359400000.0
1029.614,65601400000.0
1030.155,69647700000.0
1030.329,70831100000.0
1030.676,73205200000.0
1031.37,77853900000.0
1032.058,81940300000.0
1032.745,85354800000.0
1033.433,88546700000.0
1033.787,90167800000.0
1034.495,92915300000.0
1035.203,95355800000.0
1035.516,96706900000.0
1036.142,99966200000.0
1036.768,104209000000.0
1037.246,108224000000.0
1037.724,112474000000.0
1038.68,121302000000.0
1038.975,124356000000.0
1039.565,129748000000.0
1040.155,134468000000.0
1040.704,139261000000.0
1041.803,150041000000.0
1042.433,155839000000.0
1043.694,168130000000.0
1044.162,173288000000.0
1045.099,184605000000.0
1045.495,190137000000.0
1045.892,196346000000.0
1046.685,209160000000.0
1047.621,222198000000.0
1048.557,235875000000.0
1048.81,240778000000.0
1049.317,251473000000.0
1050.0,266185000000.0
1050.683,276629000000.0
1051.366,284224000000.0
1052.731,296605000000.0
1053.414,300893000000.0
1054.097,304312000000.0
1055.0,311121000000.0
1055.903,317867000000.0
1056.806,316250000000.0
1057.708,310069000000.0
1058.16,308677000000.0
1058.611,309715000000.0
1059.063,313481000000.0
1059.514,319971000000.0
1060.0,329953000000.0
1060.486,342882000000.0
1060.729,350991000000.0
1060.972,359643000000.0
1061.215,370190000000.0
1061.458,381766000000.0
1061.7,396102000000.0
1061.943,412409000000.0
1062.186,431666000000.0
1062.429,453458000000.0
1062.672,478393000000.0
1062.915,507448000000.0
1063.158,539342000000.0
1063.401,574863000000.0
1063.887,651873000000.0
1064.373,734279000000.0
1064.858,814105000000.0
1065.0,838157000000.0
1065.283,879246000000.0
1065.566,922941000000.0
1066.133,1011820000000.0
1066.699,1109970000000.0
1067.266,1210710000000.0
1067.549,1257900000000.0
1067.832,1291550000000.0
1068.115,1315640000000.0
1068.398,1324270000000.0
1068.682,1315720000000.0
1068.965,1297800000000.0
1069.248,1262740000000.0
1069.531,1225930000000.0
1070.0,1156790000000.0
1070.469,1095090000000.0
1070.703,1071010000000.0
1070.938,1048540000000.0
1071.172,1031720000000.0
1071.406,1017040000000.0
1071.875,995620000000.0
1072.344,978427000000.0
1072.812,959572000000.0
1073.281,933485000000.0
1073.75,898976000000.0
1074.219,857887000000.0
1075.0,787262000000.0
1075.391,758872000000.0
1075.781,738200000000.0
1076.172,725242000000.0
1076.562,720371000000.0
1076.953,725672000000.0
1077.344,743272000000.0
1077.734,771930000000.0
1078.125,813868000000.0
1078.32,842251000000.0
1078.516,872925000000.0
1078.711,911564000000.0
1078.906,953310000000.0
1079.102,1000620000000.0
1079.297,1054900000000.0
1079.492,1115850000000.0
1079.688,1185450000000.0
1079.844,1247020000000.0
1080.0,1314760000000.0
1080.156,1386830000000.0
1080.312,1465770000000.0
1080.469,1553020000000.0
1080.625,1644870000000.0
1080.781,1746430000000.0
1080.938,1859650000000.0
1081.25,2102190000000.0
1081.394,2228860000000.0
1081.538,2363280000000.0
1081.826,2646030000000.0
1081.97,2807850000000.0
1082.114,2963800000000.0
1082.401,3306790000000.0
1082.689,3668360000000.0
1082.977,4069370000000.0
1083.077,4204200000000.0
1083.277,4481120000000.0
1083.676,5072320000000.0
1084.076,5680060000000.0
1084.874,6874270000000.0
1085.673,8006810000000.0
1086.472,9056900000000.0
1086.538,9140300000000.0
1086.67,9301870000000.0
1086.933,9636430000000.0
1087.461,10260400000000.0
1088.516,11411000000000.0
1089.57,12502600000000.0
1090.0,12896300000000.0
1090.86,13663900000000.0
1091.719,14338700000000.0
1092.579,14949100000000.0
1094.298,16067400000000.0
1095.0,16490500000000.0
1096.404,17216200000000.0
1097.808,17772600000000.0
1099.211,18173200000000.0
1100.0,18289400000000.0
1100.789,18386200000000.0
1102.366,18455900000000.0
1103.943,18468000000000.0
1105.0,18455000000000.0
1106.057,18361000000000.0
1107.114,18238600000000.0
1108.171,18022500000000.0
1109.229,17753600000000.0
1110.0,17456600000000.0
1110.771,17159700000000.0
1112.314,16481800000000.0
1113.857,15863600000000.0
1115.0,15448600000000.0
1116.143,15146100000000.0
1117.285,14849100000000.0
1119.57,14239300000000.0
1120.0,14093600000000.0
1120.859,13803500000000.0
1122.578,13094100000000.0
1124.297,12292100000000.0
1125.0,11961600000000.0
1125.703,11520500000000.0
1126.406,11097000000000.0
1127.109,10667200000000.0
1127.812,10138600000000.0
1129.219,9133930000000.0
1130.0,8513930000000.0
1130.781,7946890000000.0
1131.154,7678350000000.0
1131.9,7138720000000.0
1132.308,6864390000000.0
1133.125,6340180000000.0
1134.758,5310370000000.0
1136.154,4450640000000.0
1136.852,4084340000000.0
1137.55,3685140000000.0
1138.248,3323140000000.0
1138.946,3013470000000.0
1139.644,2684640000000.0
1140.0,2536980000000.0
1140.356,2402150000000.0
1140.712,2278720000000.0
1141.068,2161040000000.0
1141.78,1925180000000.0
1142.492,1737300000000.0
1143.204,1571270000000.0
1143.56,1487870000000.0
1143.916,1413780000000.0
1144.271,1348530000000.0
1144.627,1291110000000.0
1145.0,1237320000000.0
1145.373,1177480000000.0
1145.745,1125640000000.0
1146.118,1080970000000.0
1146.49,1042480000000.0
1146.863,1008710000000.0
1147.608,940797000000.0
1148.353,887362000000.0
1149.098,845822000000.0
1150.0,799665000000.0
1150.451,781949000000.0
1150.902,767169000000.0
1151.804,736524000000.0
1152.706,713905000000.0
1153.607,692419000000.0
1154.509,675030000000.0
