Wavelength,Flux
900.0,12479400000.0
903.442,13390500000.0
904.998,13821200000.0
906.554,14263900000.0
908.11,14719100000.0
909.667,15187200000.0
910.703,15505900000.0
911.74,15830700000.0
911.84,15862300000.0
912.0,15913000000.0
912.31,16011700000.0
912.779,16162100000.0
913.717,16466400000.0
913.871,16517100000.0
914.026,16567800000.0
914.181,17305200000.0
914.335,17741800000.0
914.49,18281700000.0
914.644,18857800000.0
914.721,19146900000.0
914.798,19407400000.0
914.876,19572900000.0
914.953,19542800000.0
914.992,19394400000.0
915.03,19112100000.0
915.08,18567400000.0
915.13,17779700000.0
915.18,17132800000.0
915.23,16970500000.0
915.28,16984800000.0
915.329,17001200000.0
915.427,17036200000.0
915.475,17208000000.0
915.524,17746000000.0
915.573,18126300000.0
915.622,17887000000.0
915.67,17347700000.0
915.719,17137400000.0
915.768,17149400000.0
915.817,17165900000.0
915.824,17168400000.0
915.874,17185400000.0
915.892,17191500000.0
915.942,17235900000.0
915.992,17725600000.0
916.042,18767500000.0
916.092,19656900000.0
916.142,19903900000.0
916.192,19338800000.0
916.242,18258200000.0
916.292,17465200000.0
916.342,17345100000.0
916.385,17359900000.0
916.429,17374800000.0
916.516,17404800000.0
916.56,17509600000.0
916.603,18204100000.0
916.647,19541400000.0
916.69,21039600000.0
916.734,22325000000.0
916.777,23115100000.0
916.821,23321600000.0
916.864,22876800000.0
916.908,21843500000.0
916.951,20367800000.0
916.995,18808200000.0
917.038,17818600000.0
917.082,17602200000.0
917.125,17615000000.0
917.181,17634400000.0
917.292,17687900000.0
917.331,18053100000.0
917.37,19170400000.0
917.409,20861300000.0
917.448,22743500000.0
917.487,24576100000.0
917.526,26244900000.0
917.565,27627500000.0
917.604,28615000000.0
917.642,29135500000.0
917.681,29165600000.0
917.72,28683700000.0
917.759,27688400000.0
917.798,26226200000.0
917.837,24453600000.0
917.876,22511000000.0
917.915,20560800000.0
917.953,18973000000.0
917.992,18100000000.0
918.031,17933800000.0
918.07,17945500000.0
918.129,17966300000.0
918.247,18043500000.0
918.276,18372800000.0
918.306,19182500000.0
918.335,20449800000.0
918.365,22079000000.0
918.394,23822000000.0
918.424,25704900000.0
918.453,27620500000.0
918.483,29521700000.0
918.542,33002900000.0
918.571,34581800000.0
918.601,35964200000.0
918.63,37159700000.0
918.66,38131100000.0
918.689,38844500000.0
918.719,39300500000.0
918.748,39488500000.0
918.778,39399700000.0
918.807,39029000000.0
918.837,38375700000.0
918.866,37431800000.0
918.896,36226600000.0
918.925,34791300000.0
918.954,33121300000.0
919.004,30034800000.0
919.054,26621500000.0
919.104,23337400000.0
919.154,20475000000.0
919.204,18744000000.0
919.254,18369100000.0
919.304,18385300000.0
919.351,18402300000.0
919.445,18437200000.0
919.492,18739500000.0
919.539,20263300000.0
919.586,22954600000.0
919.633,26274100000.0
919.68,30021600000.0
919.727,33910900000.0
919.822,41691500000.0
919.869,45344400000.0
919.916,48652300000.0
919.963,51527000000.0
920.01,53926900000.0
920.057,55791200000.0
920.104,57074900000.0
920.151,57751100000.0
920.198,57794100000.0
920.245,57185000000.0
920.292,55911500000.0
920.339,53966900000.0
920.386,51385300000.0
920.433,48236000000.0
920.48,44562800000.0
920.52,41198400000.0
920.56,37694700000.0
920.64,30624200000.0
920.679,27267300000.0
920.719,24251800000.0
920.759,21666700000.0
920.799,19849100000.0
920.839,19029100000.0
920.878,18960200000.0
920.958,18989700000.0
920.963,18991500000.0
921.013,19010100000.0
921.063,19031500000.0
921.113,19568600000.0
921.163,21618300000.0
921.213,24992500000.0
921.263,29170600000.0
921.313,33877500000.0
921.363,39027000000.0
921.413,44365500000.0
921.513,55255600000.0
921.563,60446300000.0
921.613,65353300000.0
921.663,69922500000.0
921.713,74092600000.0
921.763,77787900000.0
921.813,81009800000.0
921.863,83738600000.0
921.913,85965200000.0
921.963,87666600000.0
922.013,88821800000.0
922.063,89413700000.0
922.113,89425700000.0
922.117,89399300000.0
922.167,88760400000.0
922.217,87506200000.0
922.267,85630700000.0
922.317,83132100000.0
922.367,80017700000.0
922.417,76289800000.0
922.467,71958400000.0
922.506,68209700000.0
922.556,63002200000.0
922.606,57460700000.0
922.656,51654900000.0
922.706,45762100000.0
922.756,40063200000.0
922.806,34635300000.0
922.85,30241500000.0
922.895,26317400000.0
922.94,23075200000.0
922.984,20800500000.0
922.992,20530200000.0
923.042,19787200000.0
923.089,19793800000.0
923.114,19803400000.0
923.138,19812700000.0
923.144,19814900000.0
923.15,19817300000.0
923.156,19819600000.0
923.162,19821900000.0
923.187,19831500000.0
923.211,19840700000.0
923.261,19878800000.0
923.308,20655700000.0
923.358,23111900000.0
923.405,26613100000.0
923.455,31221000000.0
923.505,36497300000.0
923.555,42385700000.0
923.605,48710900000.0
923.655,55352100000.0
923.705,62122500000.0
923.794,74152800000.0
923.883,85658400000.0
923.972,96390700000.0
924.061,106192000000.0
924.15,114801000000.0
924.183,117712000000.0
924.249,123085000000.0
924.314,127778000000.0
924.38,131821000000.0
924.436,134794000000.0
924.492,137299000000.0
924.549,139313000000.0
924.605,140832000000.0
924.661,141847000000.0
924.688,142153000000.0
924.741,142419000000.0
924.795,142217000000.0
924.848,141532000000.0
924.939,139193000000.0
924.984,137444000000.0
925.03,135304000000.0
925.08,132505000000.0
925.13,129229000000.0
925.18,125457000000.0
925.189,124713000000.0
925.239,120315000000.0
925.289,115459000000.0
925.339,110185000000.0
925.389,104425000000.0
925.439,98215500000.0
925.489,91658400000.0
925.539,84829200000.0
925.579,79170900000.0
925.659,67483700000.0
925.739,55841300000.0
925.779,50192000000.0
925.819,44805100000.0
925.859,39767300000.0
925.899,35114200000.0
925.935,31389400000.0
925.97,28067000000.0
926.005,25229800000.0
926.041,22998000000.0
926.067,21823600000.0
926.117,21000500000.0
926.165,21006900000.0
926.189,21016600000.0
926.214,21026800000.0
926.22,21029200000.0
926.226,21031600000.0
926.232,21034100000.0
926.238,21036500000.0
926.263,21046600000.0
926.287,21056300000.0
926.337,21095100000.0
926.385,21957900000.0
926.435,24604200000.0
926.482,28348500000.0
926.532,33309500000.0
926.582,39062400000.0
926.632,45540400000.0
926.682,52656000000.0
926.732,60219000000.0
926.782,68066500000.0
926.873,82780900000.0
926.964,97391700000.0
927.055,111723000000.0
927.146,125319000000.0
927.263,141617000000.0
927.38,156367000000.0
927.497,169686000000.0
927.613,181401000000.0
927.73,191681000000.0
927.847,200505000000.0
927.875,202410000000.0
927.931,206006000000.0
928.042,212339000000.0
928.154,217509000000.0
928.266,221539000000.0
928.376,224390000000.0
928.487,226115000000.0
928.537,226512000000.0
928.637,226574000000.0
928.737,225617000000.0
928.837,223600000000.0
928.937,220442000000.0
929.037,216100000000.0
929.097,212881000000.0
929.217,205067000000.0
929.277,200440000000.0
929.337,195289000000.0
929.458,183401000000.0
929.518,176697000000.0
929.578,169419000000.0
929.698,153420000000.0
929.706,152319000000.0
929.756,145034000000.0
929.856,129534000000.0
929.956,113059000000.0
930.056,95843300000.0
930.098,88557700000.0
930.182,73945300000.0
930.224,66854300000.0
930.266,59939800000.0
930.309,53318300000.0
930.351,47172800000.0
930.393,41464200000.0
930.435,36368800000.0
930.463,33256600000.0
930.491,30471800000.0
930.519,28042400000.0
930.547,25929700000.0
930.589,23767100000.0
930.639,22898800000.0
930.687,22907900000.0
930.711,22918400000.0
930.736,22929300000.0
930.742,22931900000.0
930.748,22934600000.0
930.754,22937200000.0
930.76,22939800000.0
930.785,22950700000.0
930.809,22961200000.0
930.859,22998600000.0
930.907,23911200000.0
930.957,26705100000.0
931.005,30774100000.0
931.055,36088900000.0
931.105,42272100000.0
931.155,49295900000.0
931.205,57051900000.0
931.255,65379300000.0
931.305,74105900000.0
931.355,83146700000.0
931.398,91082800000.0
931.484,107027000000.0
931.657,138721000000.0
931.79,161931000000.0
931.923,183771000000.0
932.057,203900000000.0
932.19,222314000000.0
932.324,239093000000.0
932.457,254302000000.0
932.591,267999000000.0
932.724,280385000000.0
932.857,291620000000.0
932.991,301745000000.0
933.033,304736000000.0
933.117,310411000000.0
933.286,320582000000.0
933.455,329335000000.0
933.624,336759000000.0
933.793,342909000000.0
933.962,347811000000.0
934.276,353572000000.0
934.433,354761000000.0
934.59,354761000000.0
934.747,353505000000.0
934.903,350921000000.0
935.06,346916000000.0
935.217,341399000000.0
935.366,334908000000.0
935.514,326643000000.0
935.662,316593000000.0
935.811,304698000000.0
935.959,290979000000.0
936.107,275042000000.0
936.256,256752000000.0
936.404,236078000000.0
936.553,213018000000.0
936.701,187463000000.0
936.753,177987000000.0
936.857,158436000000.0
936.961,137984000000.0
937.065,117063000000.0
937.148,100417000000.0
937.231,83983000000.0
937.314,68383800000.0
937.356,61042600000.0
937.397,54218100000.0
937.439,47897600000.0
937.48,42197300000.0
937.512,38198600000.0
937.544,34648400000.0
937.576,31588900000.0
937.608,29053300000.0
937.642,27170100000.0
937.692,26161800000.0
937.741,26172700000.0
937.766,26185000000.0
937.791,26197300000.0
937.797,26200200000.0
937.803,26203200000.0
937.809,26206100000.0
937.815,26209000000.0
937.84,26221300000.0
937.865,26233600000.0
937.915,26273400000.0
937.964,27336200000.0
938.014,30475800000.0
938.062,34986800000.0
938.112,40875300000.0
938.162,47710600000.0
938.212,55507200000.0
938.262,64095300000.0
938.312,73363000000.0
938.362,83109300000.0
938.412,93238200000.0
938.458,102797000000.0
938.55,122141000000.0
938.734,161057000000.0
938.853,185167000000.0
938.972,208461000000.0
939.09,230541000000.0
939.209,251439000000.0
939.327,271046000000.0
939.446,289618000000.0
939.564,306850000000.0
939.801,338282000000.0
939.92,352619000000.0
940.038,365999000000.0
940.275,390781000000.0
940.434,405938000000.0
940.751,432986000000.0
941.069,457388000000.0
941.386,478242000000.0
941.703,496564000000.0
942.015,512311000000.0
942.327,525998000000.0
942.639,537783000000.0
942.894,546044000000.0
943.404,560506000000.0
943.773,566534000000.0
944.142,569654000000.0
944.511,569539000000.0
944.625,568810000000.0
944.853,566340000000.0
945.31,557037000000.0
945.478,552086000000.0
945.814,539525000000.0
946.149,523167000000.0
946.485,502741000000.0
946.782,480918000000.0
947.079,455235000000.0
947.376,424787000000.0
947.673,389324000000.0
947.821,369185000000.0
947.97,347294000000.0
948.118,323503000000.0
948.267,297508000000.0
948.415,269259000000.0
948.563,238830000000.0
948.68,213384000000.0
948.797,186976000000.0
948.913,159637000000.0
949.03,131926000000.0
949.08,120067000000.0
949.181,96822200000.0
949.231,85744400000.0
949.282,75210800000.0
949.332,65513200000.0
949.383,56645800000.0
949.431,49167600000.0
949.48,42657500000.0
949.53,37327800000.0
949.58,33788000000.0
949.63,32606000000.0
949.68,32624900000.0
949.705,32639800000.0
949.73,32654600000.0
949.737,32658800000.0
949.743,32662300000.0
949.749,32665900000.0
949.755,32669500000.0
949.781,32684900000.0
949.806,32699800000.0
949.856,32740700000.0
949.906,33988500000.0
949.956,37615400000.0
950.006,43060100000.0
950.056,49923000000.0
950.106,57846400000.0
950.156,66906600000.0
950.206,76808600000.0
950.256,87563600000.0
950.306,98892400000.0
950.356,110646000000.0
950.406,122774000000.0
950.506,147390000000.0
950.707,197054000000.0
950.806,220917000000.0
951.005,266659000000.0
951.104,288218000000.0
951.203,308906000000.0
951.402,347433000000.0
951.601,382500000000.0
951.8,414666000000.0
951.998,444154000000.0
952.197,471615000000.0
952.407,498682000000.0
952.827,547551000000.0
953.246,591425000000.0
953.666,631500000000.0
954.008,661987000000.0
954.692,718105000000.0
955.376,769316000000.0
955.609,785856000000.0
956.075,817741000000.0
957.008,880850000000.0
957.211,893546000000.0
957.618,918452000000.0
958.432,966399000000.0
958.812,988012000000.0
959.573,1030010000000.0
960.413,1074800000000.0
960.776,1102750000000.0
961.139,1121710000000.0
961.14,1121760000000.0
961.19,1124350000000.0
961.29,1129530000000.0
961.376,1133990000000.0
961.548,1142850000000.0
961.611,1146080000000.0
961.737,1152540000000.0
961.989,1165440000000.0
962.494,1190590000000.0
963.251,1227640000000.0
964.766,1297000000000.0
964.89,1302190000000.0
965.139,1312340000000.0
965.637,1331480000000.0
966.53,1359920000000.0
967.349,1376020000000.0
968.169,1373060000000.0
968.219,1372090000000.0
968.319,1370160000000.0
968.519,1366180000000.0
968.719,1361640000000.0
968.919,1351460000000.0
969.119,1341800000000.0
969.319,1332670000000.0
969.519,1321480000000.0
969.719,1310350000000.0
969.809,1305560000000.0
969.989,1296420000000.0
970.349,1270790000000.0
970.709,1246870000000.0
970.889,1230530000000.0
971.069,1215740000000.0
971.159,1208850000000.0
971.248,1202240000000.0
971.293,1199030000000.0
971.338,1195900000000.0
971.383,1164730000000.0
971.428,1137180000000.0
971.448,1126380000000.0
971.498,1101550000000.0
971.598,1060720000000.0
971.698,1028160000000.0
971.798,1001210000000.0
971.858,987048000000.0
971.978,962132000000.0
972.098,924026000000.0
972.218,890733000000.0
972.268,878798000000.0
972.367,857529000000.0
972.37,857006000000.0
972.42,847390000000.0
972.473,837848000000.0
972.499,833398000000.0
972.524,829255000000.0
972.531,828110000000.0
972.537,827143000000.0
972.543,826172000000.0
972.55,825062000000.0
972.575,821143000000.0
972.601,817189000000.0
972.653,809594000000.0
972.703,806344000000.0
972.753,803766000000.0
972.806,801081000000.0
972.912,795884000000.0
973.124,786182000000.0
973.216,782250000000.0
973.308,778458000000.0
973.399,782247000000.0
973.583,792464000000.0
973.626,794931000000.0
973.712,799950000000.0
973.884,810343000000.0
974.228,838233000000.0
974.573,873543000000.0
974.917,909167000000.0
975.265,950235000000.0
975.613,986603000000.0
976.309,1057400000000.0
976.905,1112460000000.0
977.501,1175230000000.0
978.096,1255160000000.0
978.544,1312000000000.0
979.44,1434870000000.0
979.812,1505830000000.0
980.184,1586170000000.0
980.928,1751270000000.0
981.376,1833400000000.0
981.823,1883440000000.0
982.718,1979140000000.0
983.463,2042930000000.0
984.208,2111900000000.0
985.102,2201710000000.0
985.922,2271420000000.0
986.742,2342140000000.0
988.381,2465600000000.0
989.2,2499930000000.0
990.02,2538320000000.0
990.021,2538370000000.0
990.071,2539990000000.0
990.171,2543250000000.0
990.371,2538950000000.0
990.571,2533610000000.0
990.771,2528320000000.0
990.971,2525600000000.0
991.171,2526380000000.0
991.371,2527180000000.0
991.571,2528050000000.0
991.66,2533830000000.0
991.838,2545490000000.0
992.194,2568830000000.0
992.549,2605810000000.0
992.905,2645350000000.0
993.3,2707410000000.0
993.695,2776540000000.0
994.485,2917210000000.0
995.275,2984480000000.0
996.065,3010520000000.0
996.358,3024230000000.0
996.65,3062920000000.0
996.943,3108260000000.0
997.235,3164050000000.0
997.527,3235470000000.0
997.82,3313200000000.0
998.112,3392070000000.0
998.405,3476800000000.0
998.697,3545940000000.0
998.99,3607410000000.0
999.282,3656420000000.0
999.575,3685130000000.0
999.648,3693410000000.0
999.721,3701680000000.0
999.758,3915160000000.0
999.794,3919610000000.0
999.831,3923990000000.0
999.867,3928360000000.0
999.917,3932020000000.0
1000.0,3934720000000.0
1000.165,3941560000000.0
1000.496,3954240000000.0
1000.827,3942370000000.0
1001.158,3923320000000.0
1001.819,3868270000000.0
1001.912,3860860000000.0
1002.097,3845100000000.0
1002.467,3812510000000.0
1003.207,3730000000000.0
1003.824,3653520000000.0
1005.057,3486730000000.0
1005.553,3416130000000.0
1006.545,3278390000000.0
1007.282,3179320000000.0
1008.757,2986010000000.0
1009.011,2955540000000.0
1009.52,2896090000000.0
1010.537,2777900000000.0
1010.74,2756190000000.0
1011.145,2713370000000.0
1011.956,2628790000000.0
1012.469,2577880000000.0
1013.495,2479380000000.0
1014.199,2412530000000.0
1015.606,2283390000000.0
1015.928,2254170000000.0
1016.572,2194110000000.0
1017.657,2088850000000.0
1019.386,1905180000000.0
1020.25,1798230000000.0
1021.115,1675540000000.0
1021.547,1606030000000.0
1021.979,1529040000000.0
1022.412,1440970000000.0
1022.844,1340310000000.0
1023.276,1222200000000.0
1023.708,1080150000000.0
1023.925,1001310000000.0
1024.141,902740000000.0
1024.357,799868000000.0
1024.573,690147000000.0
1024.624,661658000000.0
1024.674,634155000000.0
1024.724,606420000000.0
1024.774,578589000000.0
1024.824,550199000000.0
1024.874,521590000000.0
1024.924,492510000000.0
1024.974,462496000000.0
1025.006,443652000000.0
1025.069,406356000000.0
1025.132,367101000000.0
1025.196,326373000000.0
1025.322,244508000000.0
1025.38,209471000000.0
1025.438,177654000000.0
1025.465,164039000000.0
1025.492,151601000000.0
1025.519,140564000000.0
1025.546,130866000000.0
1025.596,118949000000.0
1025.646,115666000000.0
1025.654,115641000000.0
1025.681,115674000000.0
1025.708,115722000000.0
1025.715,115734000000.0
1025.72,115743000000.0
1025.722,115747000000.0
1025.729,115759000000.0
1025.736,115771000000.0
1025.763,115819000000.0
1025.79,115867000000.0
1025.844,117125000000.0
1025.871,120544000000.0
1025.898,126818000000.0
1025.925,135259000000.0
1025.952,145713000000.0
1025.979,157502000000.0
1026.005,170615000000.0
1026.056,197780000000.0
1026.106,227721000000.0
1026.156,259698000000.0
1026.206,293000000000.0
1026.256,326710000000.0
1026.306,360366000000.0
1026.356,393459000000.0
1026.406,425458000000.0
1026.438,445139000000.0
1026.501,483208000000.0
1026.628,559652000000.0
1026.749,629803000000.0
1026.87,698197000000.0
1026.92,726692000000.0
1026.97,755360000000.0
1027.02,782645000000.0
1027.07,807444000000.0
1027.12,831996000000.0
1027.17,856447000000.0
1027.22,880993000000.0
1027.27,905589000000.0
1027.32,930346000000.0
1027.37,955412000000.0
1027.421,980789000000.0
1027.471,1006860000000.0
1027.521,1030660000000.0
1027.571,1050440000000.0
1027.621,1069990000000.0
1027.671,1089440000000.0
1027.721,1108930000000.0
1027.771,1128480000000.0
1027.821,1148100000000.0
1027.871,1167810000000.0
1027.921,1187770000000.0
1027.971,1208050000000.0
1028.021,1226960000000.0
1028.071,1243500000000.0
1028.121,1259890000000.0
1028.171,1276310000000.0
1028.221,1292810000000.0
1028.271,1309420000000.0
1028.321,1326240000000.0
1028.371,1343280000000.0
1028.422,1360540000000.0
1028.472,1378030000000.0
1028.522,1394170000000.0
1028.572,1408210000000.0
1028.6,1416150000000.0
1028.657,1431960000000.0
1028.77,1463530000000.0
1028.996,1528360000000.0
1029.223,1582910000000.0
1029.45,1638170000000.0
1029.903,1739980000000.0
1030.329,1828710000000.0
1031.182,2011540000000.0
1032.058,2196820000000.0
1032.922,2353540000000.0
1033.787,2498410000000.0
1034.651,2611500000000.0
1035.516,2724550000000.0
1035.948,2801310000000.0
1036.38,2891360000000.0
1036.813,3001890000000.0
1037.245,3127360000000.0
1037.296,3142850000000.0
1037.346,3158400000000.0
1037.396,3174330000000.0
1037.446,3190620000000.0
1037.496,3207320000000.0
1037.546,3220610000000.0
1037.596,3233810000000.0
1037.646,3247220000000.0
1037.696,3260860000000.0
1037.746,3274750000000.0
1037.797,3288900000000.0
1037.847,3303310000000.0
1037.897,3318000000000.0
1037.947,3332970000000.0
1037.997,3348230000000.0
1038.047,3361760000000.0
1038.097,3375350000000.0
1038.147,3389150000000.0
1038.197,3403180000000.0
1038.247,3417430000000.0
1038.297,3431920000000.0
1038.347,3446670000000.0
1038.397,3461680000000.0
1038.447,3476970000000.0
1038.497,3492550000000.0
1038.547,3506850000000.0
1038.597,3521270000000.0
1038.647,3535910000000.0
1038.697,3550800000000.0
1038.747,3565930000000.0
1038.797,3581320000000.0
1038.848,3596970000000.0
1038.898,3612890000000.0
1038.948,3629100000000.0
1038.975,3638080000000.0
1039.03,3654000000000.0
1039.139,3682560000000.0
1039.358,3741800000000.0
1039.795,3847720000000.0
1040.67,4054740000000.0
1040.704,4063570000000.0
1040.771,4081370000000.0
1040.906,4117540000000.0
1041.176,4190460000000.0
1041.715,4335920000000.0
1042.433,4513390000000.0
1043.87,4882660000000.0
1044.162,4965990000000.0
1044.747,5141300000000.0
1045.319,5333570000000.0
1045.892,5553950000000.0
1047.037,6010620000000.0
