Wavelength,Flux
900.0,347850000.0
903.442,378374000.0
904.998,392945000.0
906.554,408020000.0
908.11,423611000.0
909.667,439745000.0
910.703,450785000.0
911.74,462083000.0
911.84,463186000.0
912.0,464956000.0
912.31,468402000.0
912.779,473658000.0
913.717,484330000.0
914.335,491721000.0
915.329,503175000.0
915.824,509093000.0
915.892,509911000.0
916.028,515139000.0
916.164,520058000.0
916.297,515142000.0
916.429,516410000.0
916.495,517216000.0
916.561,518416000.0
916.628,524649000.0
916.694,532049000.0
916.76,537177000.0
916.826,539273000.0
916.892,538204000.0
916.958,532956000.0
917.025,525875000.0
917.091,524521000.0
917.157,525338000.0
917.181,525636000.0
917.231,526255000.0
917.331,529332000.0
917.39,538636000.0
917.448,549334000.0
917.506,557953000.0
917.565,564189000.0
917.623,568251000.0
917.682,570119000.0
917.74,569588000.0
917.799,565964000.0
917.857,558930000.0
917.916,548239000.0
917.974,538284000.0
918.033,536265000.0
918.129,537478000.0
918.225,538696000.0
918.273,540966000.0
918.322,550145000.0
918.37,562996000.0
918.418,575740000.0
918.514,595391000.0
918.562,602771000.0
918.611,608508000.0
918.707,616111000.0
918.803,618901000.0
918.9,615783000.0
918.948,611260000.0
918.996,604063000.0
919.004,602498000.0
919.054,592012000.0
919.104,578242000.0
919.154,563546000.0
919.204,553351000.0
919.254,551841000.0
919.351,553094000.0
919.448,554353000.0
919.497,557037000.0
919.545,568514000.0
919.594,585730000.0
919.642,603664000.0
919.739,634603000.0
919.788,647273000.0
919.836,657933000.0
919.933,674201000.0
920.03,685876000.0
920.127,693665000.0
920.224,697415000.0
920.321,696624000.0
920.419,689305000.0
920.467,682761000.0
920.516,673708000.0
920.56,662886000.0
920.604,649174000.0
920.649,633274000.0
920.738,597766000.0
920.782,582386000.0
920.827,573611000.0
920.871,573087000.0
920.915,573681000.0
920.963,574318000.0
921.058,575592000.0
921.106,578133000.0
921.153,590596000.0
921.201,610595000.0
921.248,633123000.0
921.343,677903000.0
921.438,715365000.0
921.534,745059000.0
921.629,767713000.0
921.724,785670000.0
921.819,799756000.0
921.914,810641000.0
922.104,824335000.0
922.117,824869000.0
922.167,826414000.0
922.267,826647000.0
922.367,822059000.0
922.467,810839000.0
922.506,804106000.0
922.584,785798000.0
922.662,760483000.0
922.701,744645000.0
922.74,726847000.0
922.818,687173000.0
922.895,646654000.0
922.943,623078000.0
922.992,607200000.0
923.042,602791000.0
923.089,603422000.0
923.114,603772000.0
923.138,604108000.0
923.144,604191000.0
923.15,604276000.0
923.156,604360000.0
923.162,604443000.0
923.187,604795000.0
923.211,605130000.0
923.261,605871000.0
923.308,611679000.0
923.358,629904000.0
923.405,655180000.0
923.455,684529000.0
923.555,746154000.0
923.655,802717000.0
923.755,850289000.0
923.794,866284000.0
923.872,894076000.0
923.95,917527000.0
924.028,937042000.0
924.183,967677000.0
924.338,990988000.0
924.436,1003120000.0
924.633,1021920000.0
924.688,1025980000.0
924.798,1032400000.0
924.939,1036850000.0
925.064,1036370000.0
925.189,1030090000.0
925.314,1015660000.0
925.439,989915000.0
925.509,968963000.0
925.579,941898000.0
925.649,908315000.0
925.719,867670000.0
925.789,821888000.0
925.859,772444000.0
925.97,697513000.0
926.018,670009000.0
926.067,652178000.0
926.116,647165000.0
926.164,647856000.0
926.189,648228000.0
926.214,648601000.0
926.22,648690000.0
926.226,648780000.0
926.232,648869000.0
926.238,648960000.0
926.263,649333000.0
926.287,649692000.0
926.337,650474000.0
926.385,656982000.0
926.435,677233000.0
926.482,706076000.0
926.532,740794000.0
926.582,779139000.0
926.682,858866000.0
926.777,931690000.0
926.873,995427000.0
926.969,1048730000.0
927.064,1093670000.0
927.16,1130570000.0
927.255,1161770000.0
927.263,1164150000.0
927.313,1178810000.0
927.413,1204910000.0
927.613,1246700000.0
927.813,1279500000.0
927.875,1288500000.0
927.999,1304960000.0
928.247,1332650000.0
928.487,1354190000.0
928.727,1370210000.0
928.967,1379180000.0
929.097,1379970000.0
929.357,1368630000.0
929.487,1353660000.0
929.617,1329540000.0
929.706,1306680000.0
929.794,1277010000.0
929.883,1239080000.0
929.971,1193440000.0
930.06,1137310000.0
930.098,1110040000.0
930.174,1049930000.0
930.25,982652000.0
930.326,912615000.0
930.402,844076000.0
930.478,782623000.0
930.491,774043000.0
930.541,742143000.0
930.589,722831000.0
930.639,717772000.0
930.687,718542000.0
930.711,718935000.0
930.736,719344000.0
930.742,719443000.0
930.748,719541000.0
930.754,719640000.0
930.76,719737000.0
930.785,720148000.0
930.809,720541000.0
930.859,721387000.0
930.907,728086000.0
930.957,750277000.0
931.005,783294000.0
931.055,823187000.0
931.105,868476000.0
931.155,917165000.0
931.255,1018650000.0
931.398,1155730000.0
931.47,1217010000.0
931.541,1271830000.0
931.684,1368310000.0
931.79,1427500000.0
931.896,1478590000.0
932.002,1523210000.0
932.107,1561580000.0
932.213,1595030000.0
932.425,1651900000.0
932.637,1697720000.0
932.848,1736770000.0
933.033,1766820000.0
933.402,1818420000.0
933.772,1862270000.0
934.141,1900930000.0
934.276,1913660000.0
934.546,1936890000.0
935.085,1971720000.0
935.514,1981390000.0
935.729,1975670000.0
935.943,1959110000.0
936.157,1927020000.0
936.372,1871330000.0
936.479,1832750000.0
936.586,1784680000.0
936.67,1740230000.0
936.753,1689300000.0
936.803,1654650000.0
936.903,1578170000.0
937.003,1490260000.0
937.103,1391930000.0
937.148,1343700000.0
937.238,1241890000.0
937.419,1029480000.0
937.481,963692000.0
937.544,907121000.0
937.593,870349000.0
937.642,847350000.0
937.691,841681000.0
937.74,842591000.0
937.766,843081000.0
937.791,843554000.0
937.797,843667000.0
937.803,843778000.0
937.809,843893000.0
937.815,844006000.0
937.84,844479000.0
937.865,844952000.0
937.915,845911000.0
937.964,853498000.0
938.014,879213000.0
938.062,917730000.0
938.112,964478000.0
938.162,1018250000.0
938.212,1077070000.0
938.312,1203580000.0
938.412,1330810000.0
938.458,1387520000.0
938.55,1495110000.0
938.642,1596000000.0
938.734,1688620000.0
938.853,1797620000.0
938.972,1893300000.0
939.09,1977830000.0
939.209,2052570000.0
939.327,2117610000.0
939.446,2175050000.0
939.683,2270890000.0
939.92,2349950000.0
940.157,2416080000.0
940.394,2472710000.0
940.434,2481550000.0
940.514,2498740000.0
940.675,2531410000.0
940.995,2591220000.0
941.637,2692760000.0
942.015,2745530000.0
942.771,2843240000.0
942.894,2858330000.0
943.14,2887790000.0
943.632,2945720000.0
943.773,2961380000.0
944.055,2991690000.0
944.62,3048340000.0
944.625,3048840000.0
944.675,3053460000.0
944.775,3062530000.0
944.975,3079920000.0
945.175,3096210000.0
945.375,3111100000.0
945.478,3118130000.0
945.684,3130700000.0
946.096,3148100000.0
946.508,3149390000.0
946.92,3126220000.0
947.079,3107750000.0
947.396,3049250000.0
947.555,3006690000.0
947.713,2953470000.0
947.872,2888230000.0
948.03,2808540000.0
948.189,2710880000.0
948.348,2592390000.0
948.506,2449870000.0
948.665,2283510000.0
948.68,2266280000.0
948.73,2208630000.0
948.83,2084410000.0
948.93,1952690000.0
949.03,1813190000.0
949.08,1739490000.0
949.18,1587740000.0
949.381,1291730000.0
949.43,1229820000.0
949.48,1176080000.0
949.53,1129770000.0
949.58,1101390000.0
949.63,1095510000.0
949.68,1096700000.0
949.705,1097290000.0
949.73,1097890000.0
949.737,1098060000.0
949.743,1098200000.0
949.749,1098350000.0
949.755,1098490000.0
949.781,1099110000.0
949.806,1099710000.0
949.856,1100910000.0
949.906,1109230000.0
949.956,1140280000.0
950.006,1189570000.0
950.056,1246950000.0
950.106,1313020000.0
950.156,1385580000.0
950.256,1544420000.0
950.356,1708770000.0
950.406,1789660000.0
950.506,1946970000.0
950.707,2241210000.0
950.806,2375870000.0
951.005,2621710000.0
951.104,2732450000.0
951.203,2835580000.0
951.402,3017260000.0
951.601,3173420000.0
951.8,3308990000.0
951.998,3428470000.0
952.197,3532030000.0
952.396,3624210000.0
952.407,3629080000.0
952.457,3650520000.0
952.557,3691530000.0
952.757,3766630000.0
952.957,3832980000.0
953.157,3893710000.0
953.357,3949740000.0
953.557,4001630000.0
953.757,4049770000.0
953.957,4094440000.0
954.008,4105490000.0
954.11,4127130000.0
954.314,4169080000.0
954.721,4248360000.0
955.537,4393880000.0
955.609,4405900000.0
955.753,4429750000.0
956.042,4476750000.0
956.618,4569010000.0
957.211,4659150000.0
958.397,4837000000.0
958.812,4899150000.0
959.643,5023510000.0
960.413,5138830000.0
960.776,5195390000.0
961.14,5250430000.0
961.376,5286260000.0
961.611,5321060000.0
962.081,5390560000.0
963.021,5531210000.0
963.251,5565920000.0
963.71,5635830000.0
964.629,5777240000.0
964.89,5817750000.0
965.412,5899180000.0
966.456,6062840000.0
966.53,6074510000.0
966.678,6097870000.0
966.975,6144600000.0
967.567,6235880000.0
968.169,6327190000.0
969.372,6506220000.0
969.809,6569340000.0
970.683,6690940000.0
971.448,6745500000.0
971.653,6691940000.0
971.858,6642940000.0
971.908,6632500000.0
972.008,6609960000.0
972.208,6510280000.0
972.268,6482530000.0
972.37,6437540000.0
972.473,6394720000.0
972.499,6384300000.0
972.524,6374460000.0
972.531,6371700000.0
972.537,6369370000.0
972.543,6367010000.0
972.55,6364320000.0
972.575,6354580000.0
972.601,6344480000.0
972.653,6324400000.0
972.703,6318170000.0
972.803,6310040000.0
972.806,6309810000.0
972.856,6305840000.0
972.956,6298060000.0
973.156,6283130000.0
973.216,6278900000.0
973.336,6276750000.0
973.456,6312560000.0
973.576,6349190000.0
973.626,6364680000.0
973.726,6395750000.0
973.926,6458940000.0
974.326,6617060000.0
975.126,6948910000.0
975.265,7008150000.0
975.544,7108380000.0
976.101,7300120000.0
976.905,7533220000.0
977.709,7772120000.0
978.544,8012590000.0
980.184,8435580000.0
981.823,8805940000.0
983.462,9156230000.0
983.463,9156470000.0
983.513,9167150000.0
983.613,9188540000.0
983.813,9231520000.0
984.013,9274770000.0
984.213,9318320000.0
984.413,9362150000.0
984.613,9406270000.0
984.813,9450440000.0
985.013,9494670000.0
985.102,9514380000.0
985.28,9553910000.0
985.636,9633060000.0
986.347,9792750000.0
986.742,9881830000.0
987.532,10062100000.0
988.381,10259800000.0
990.021,10647000000.0
991.66,11042000000.0
993.3,11461200000.0
996.58,12340300000.0
996.65,12359800000.0
996.79,12399000000.0
997.07,12477700000.0
997.63,12638700000.0
998.75,12966500000.0
1000.0,13336700000.0
1001.912,13906500000.0
1003.824,14487700000.0
1005.553,15026900000.0
1007.282,15566900000.0
1009.011,16098000000.0
1010.74,16607800000.0
1012.469,17086500000.0
1014.199,17493400000.0
1015.928,17745900000.0
1016.792,17787300000.0
1017.657,17755800000.0
1018.521,17627500000.0
1019.386,17376200000.0
1020.25,16996400000.0
1021.115,16464800000.0
1021.547,16130500000.0
1021.979,15726600000.0
1022.412,15232500000.0
1022.844,14625300000.0
1023.276,13870500000.0
1023.708,12911200000.0
1023.925,12372400000.0
1024.141,11678300000.0
1024.357,10933100000.0
1024.573,10112900000.0
1024.624,9898570000.0
1024.674,9687990000.0
1024.724,9474230000.0
1024.774,9254280000.0
1024.824,9031400000.0
1024.874,8806890000.0
1024.924,8569620000.0
1024.974,8329180000.0
1025.006,8171570000.0
1025.069,7858540000.0
1025.132,7514100000.0
1025.196,7147280000.0
1025.322,6351770000.0
1025.438,5654430000.0
1025.492,5377310000.0
1025.546,5154090000.0
1025.596,5026060000.0
1025.646,4996930000.0
1025.654,4997450000.0
1025.681,4999820000.0
1025.708,5002280000.0
1025.715,5002930000.0
1025.72,5003390000.0
1025.722,5003570000.0
1025.729,5004210000.0
1025.736,5004850000.0
1025.763,5007320000.0
1025.79,5009800000.0
1025.844,5026060000.0
1025.871,5065320000.0
1025.898,5134770000.0
1025.925,5230330000.0
1025.952,5347520000.0
1026.005,5620600000.0
1026.056,5919220000.0
1026.106,6238850000.0
1026.156,6570100000.0
1026.206,6909570000.0
1026.256,7240460000.0
1026.306,7557280000.0
1026.356,7860020000.0
1026.406,8148630000.0
1026.438,8319540000.0
1026.501,8649690000.0
1026.628,9290560000.0
1026.87,10424900000.0
1027.112,11461600000.0
1027.355,12393400000.0
1027.597,13263700000.0
1027.839,13982200000.0
1028.082,14684200000.0
1028.324,15295500000.0
1028.566,15891100000.0
1028.6,15962100000.0
1028.668,16104000000.0
1028.803,16385600000.0
1029.073,16934600000.0
1029.614,17869400000.0
1030.155,18714600000.0
1030.329,18964600000.0
1030.676,19474500000.0
1031.37,20532400000.0
1032.058,21521300000.0
1032.745,22393800000.0
1033.433,23197700000.0
1033.787,23593800000.0
1034.495,24261500000.0
1035.203,24849900000.0
1035.516,25156300000.0
1036.142,25843900000.0
1037.246,27253000000.0
1038.35,28515700000.0
1038.975,29159600000.0
1040.225,30235700000.0
1040.704,30630300000.0
1041.662,31422500000.0
1042.433,32030900000.0
1043.975,33229200000.0
1044.162,33374600000.0
1044.536,33666600000.0
1045.284,34260400000.0
1045.892,34756400000.0
1047.108,35746900000.0
1047.621,36153500000.0
1048.647,36984700000.0
1048.81,37121900000.0
1049.135,37390700000.0
1049.786,37934300000.0
1050.0,38112700000.0
1050.427,38460300000.0
1051.282,39147800000.0
1052.991,40535400000.0
1055.0,42212800000.0
1059.019,45600900000.0
1060.0,46561300000.0
1061.963,48670300000.0
1065.0,52320300000.0
1068.037,55919500000.0
1070.0,57971400000.0
1073.926,62298100000.0
1075.0,63485400000.0
1077.148,66021700000.0
1078.574,68108600000.0
1080.0,70508700000.0
1081.538,73305500000.0
1083.077,75942000000.0
1086.155,80965700000.0
1086.538,81601400000.0
1087.304,82879800000.0
1088.835,85518400000.0
1090.0,87600000000.0
1092.33,91723600000.0
1095.0,96712600000.0
1097.67,102048000000.0
1100.0,106812000000.0
1104.661,116971000000.0
1105.0,117765000000.0
1105.679,119340000000.0
1107.036,122570000000.0
1109.751,128776000000.0
1110.0,129345000000.0
1110.498,130490000000.0
1111.494,132778000000.0
1113.486,137500000000.0
1115.0,141234000000.0
1118.027,148591000000.0
1120.0,153336000000.0
1123.945,162146000000.0
1125.0,164265000000.0
1127.109,167564000000.0
1129.219,169945000000.0
1130.0,170572000000.0
1131.154,171438000000.0
1132.308,171817000000.0
1134.616,171781000000.0
1136.154,170812000000.0
1137.692,169270000000.0
1140.0,165995000000.0
1142.308,162418000000.0
1145.0,158491000000.0
1147.692,154967000000.0
1150.0,152965000000.0
1152.308,151551000000.0
1156.923,149844000000.0
1161.539,148577000000.0
1165.769,148030000000.0
1169.999,148056000000.0
1174.23,148717000000.0
1178.46,150133000000.0
1181.538,152005000000.0
1184.616,154838000000.0
1185.628,155942000000.0
1187.652,158308000000.0
1189.718,160740000000.0
1191.767,162742000000.0
1193.816,164093000000.0
1195.866,164649000000.0
1197.915,164547000000.0
1199.964,164077000000.0
1202.014,163152000000.0
1204.063,161174000000.0
1205.087,159248000000.0
1206.112,156761000000.0
1206.113,156758000000.0
1206.163,156607000000.0
1206.213,156457000000.0
1206.263,156309000000.0
1206.313,156163000000.0
1206.363,156019000000.0
1206.413,155877000000.0
1206.463,155737000000.0
1206.513,155579000000.0
1206.563,155373000000.0
1206.614,155171000000.0
1206.664,154973000000.0
1206.714,154779000000.0
1206.764,154588000000.0
1206.814,154400000000.0
1206.864,154216000000.0
1206.914,154034000000.0
1206.964,153855000000.0
1207.014,153660000000.0
1207.064,153417000000.0
1207.114,153180000000.0
1207.164,152945000000.0
1207.214,152714000000.0
1207.264,152486000000.0
1207.314,152262000000.0
1207.364,152039000000.0
1207.414,151821000000.0
1207.464,151605000000.0
1207.514,151379000000.0
1207.564,151118000000.0
1207.615,150863000000.0
1207.665,150612000000.0
1207.715,150367000000.0
1207.765,150125000000.0
1207.815,149889000000.0
1207.865,149656000000.0
1207.915,149428000000.0
1207.965,149205000000.0
1208.015,148973000000.0
1208.065,148719000000.0
1208.115,148470000000.0
1208.162,148241000000.0
1208.256,147794000000.0
1208.444,146944000000.0
1208.82,144854000000.0
1209.572,139918000000.0
1210.211,135570000000.0
1210.85,130944000000.0
1211.489,125379000000.0
1212.261,119383000000.0
1213.033,113507000000.0
1213.671,109596000000.0
1214.31,106421000000.0
1214.822,103992000000.0
1214.95,102859000000.0
1215.078,101229000000.0
1215.207,98606900000.0
1215.335,94424900000.0
1215.385,92478400000.0
1215.435,90454000000.0
1215.463,89450800000.0
1215.519,87969100000.0
1215.547,87672700000.0
1215.575,87617500000.0
1215.591,87630800000.0
1215.623,87665600000.0
1215.655,87700400000.0
1215.663,87708900000.0
1215.67,87716600000.0
1215.679,87726400000.0
1215.687,87735000000.0
1215.719,87769800000.0
1215.751,87804700000.0
1215.815,88195800000.0
1215.847,88919000000.0
1215.879,90041600000.0
1215.929,92169700000.0
1215.979,94491900000.0
1216.007,95818400000.0
1216.063,98412500000.0
1216.174,103083000000.0
1216.285,107123000000.0
1216.397,110740000000.0
1216.52,114467000000.0
1216.643,117505000000.0
1216.767,120480000000.0
1217.014,126634000000.0
1217.032,127021000000.0
1217.082,128088000000.0
1217.132,129178000000.0
1217.182,130287000000.0
1217.232,131414000000.0
1217.282,132578000000.0
1217.332,133782000000.0
1217.382,135047000000.0
1217.432,136375000000.0
1217.482,137793000000.0
1217.532,138964000000.0
1217.583,139988000000.0
1217.633,141030000000.0
1217.683,142098000000.0
1217.733,143200000000.0
1217.783,144334000000.0
1217.833,145510000000.0
1217.883,146739000000.0
1217.933,148023000000.0
1217.983,149364000000.0
1218.033,150507000000.0
1218.083,151554000000.0
1218.133,152639000000.0
1218.183,153764000000.0
1218.233,154935000000.0
1218.283,156152000000.0
1218.333,157412000000.0
1218.383,158708000000.0
1218.433,160049000000.0
1218.483,161459000000.0
1218.533,162534000000.0
1218.583,163424000000.0
1218.634,164335000000.0
1218.684,165259000000.0
1218.734,166204000000.0
1218.784,167177000000.0
1218.834,168183000000.0
1218.884,169211000000.0
1218.934,170272000000.0
1218.984,171369000000.0
1219.034,172386000000.0
1219.081,173318000000.0
1219.175,175258000000.0
1219.364,179444000000.0
1219.741,187299000000.0
1220.118,194333000000.0
1220.495,199837000000.0
1221.131,209805000000.0
1221.767,218210000000.0
1222.404,223082000000.0
1222.792,227654000000.0
1223.18,232668000000.0
1223.956,241709000000.0
1224.593,247642000000.0
1225.229,252399000000.0
1225.865,256152000000.0
1226.501,259188000000.0
1227.279,262427000000.0
1228.834,269298000000.0
1229.328,271522000000.0
1230.316,276349000000.0
1231.378,281389000000.0
1233.427,291233000000.0
1235.476,300594000000.0
1237.526,309475000000.0
1239.575,317764000000.0
1241.625,325988000000.0
1245.725,343268000000.0
1249.825,361536000000.0
1250.812,365673000000.0
1252.786,374991000000.0
1256.733,393619000000.0
1260.0,410797000000.0
1263.267,430161000000.0
1265.0,440243000000.0
1268.466,459214000000.0
1270.0,468503000000.0
1273.068,487139000000.0
1275.0,498504000000.0
1278.863,524800000000.0
1280.0,532361000000.0
1282.273,547059000000.0
1285.0,563063000000.0
1287.727,580092000000.0
1290.0,594815000000.0
1294.547,626936000000.0
1295.0,630356000000.0
1295.906,637264000000.0
1297.719,650922000000.0
1300.0,667778000000.0
1305.0,703035000000.0
1310.0,739760000000.0
1315.0,778388000000.0
1320.0,818790000000.0
1325.0,861250000000.0
1330.0,906147000000.0
1335.0,952947000000.0
1340.0,1000790000000.0
1345.0,1049760000000.0
1350.0,1100830000000.0
1355.0,1154810000000.0
1360.0,1209960000000.0
1365.0,1267380000000.0
1370.0,1327590000000.0
1374.231,1379470000000.0
1378.462,1432620000000.0
1379.231,1442490000000.0
1380.0,1452430000000.0
1381.538,1472500000000.0
1384.614,1513360000000.0
1385.0,1518540000000.0
1385.771,1528940000000.0
1387.314,1549890000000.0
1390.0,1586840000000.0
1395.0,1657610000000.0
1400.0,1731020000000.0
1405.0,1807390000000.0
1410.0,1887140000000.0
1415.0,1969580000000.0
1420.0,2054080000000.0
1425.0,2141420000000.0
1430.0,2231840000000.0
1435.0,2323990000000.0
1440.0,2417110000000.0
1445.0,2512090000000.0
1450.0,2609600000000.0
1455.0,2709530000000.0
1460.0,2812530000000.0
1465.0,2918520000000.0
1470.0,3030440000000.0
1473.462,3111310000000.0
1476.923,3194960000000.0
1478.462,3233130000000.0
1480.0,3272010000000.0
1483.076,3351890000000.0
1485.0,3403310000000.0
1488.848,3508960000000.0
1490.0,3541080000000.0
1492.304,3605650000000.0
1495.0,3681010000000.0
1500.0,3819230000000.0
1505.0,3957500000000.0
1510.0,4102490000000.0
1515.0,4259080000000.0
1520.0,4423820000000.0
1525.0,4583130000000.0
1530.0,4722990000000.0
1535.0,4843780000000.0
1540.0,4960250000000.0
