Wavelength,Flux
900.0,1688490000.0
903.442,1825620000.0
904.998,1890800000.0
906.554,1958050000.0
908.11,2027410000.0
909.667,2098990000.0
910.703,2147860000.0
911.74,2197790000.0
911.84,2202660000.0
912.0,2210470000.0
912.31,2225670000.0
912.779,2248840000.0
913.717,2295840000.0
914.335,2328630000.0
915.329,2378530000.0
915.824,2404480000.0
915.892,2408070000.0
916.028,2423120000.0
916.3,2430270000.0
916.429,2436540000.0
916.558,2444120000.0
916.686,2478940000.0
916.815,2506730000.0
916.944,2490410000.0
917.181,2476920000.0
917.3,2483600000.0
917.418,2525780000.0
917.448,2543760000.0
917.507,2575570000.0
917.626,2616330000.0
917.685,2622720000.0
917.745,2618920000.0
917.804,2602940000.0
917.863,2574890000.0
917.982,2523100000.0
918.055,2524620000.0
918.129,2528670000.0
918.276,2539460000.0
918.423,2644390000.0
918.57,2752830000.0
918.717,2806180000.0
918.865,2808330000.0
918.934,2785730000.0
919.004,2744190000.0
919.074,2682610000.0
919.144,2618470000.0
919.213,2590470000.0
919.283,2592960000.0
919.351,2596790000.0
919.487,2605770000.0
919.623,2720070000.0
919.759,2888220000.0
919.894,3005110000.0
920.03,3074760000.0
920.166,3111320000.0
920.302,3115730000.0
920.367,3103300000.0
920.431,3078400000.0
920.495,3036930000.0
920.56,2975430000.0
920.61,2915120000.0
920.71,2774140000.0
920.76,2715130000.0
920.81,2685480000.0
920.86,2683180000.0
920.91,2686050000.0
920.963,2689150000.0
921.069,2695380000.0
921.122,2705800000.0
921.175,2750800000.0
921.229,2829660000.0
921.282,2923060000.0
921.388,3104010000.0
921.494,3245370000.0
921.6,3351600000.0
921.706,3429070000.0
921.813,3486570000.0
921.919,3529670000.0
922.025,3560650000.0
922.117,3577670000.0
922.301,3579180000.0
922.393,3557670000.0
922.485,3515290000.0
922.506,3501730000.0
922.556,3463040000.0
922.606,3413380000.0
922.656,3351800000.0
922.706,3278290000.0
922.756,3192660000.0
922.856,2999650000.0
922.895,2926590000.0
922.934,2866700000.0
922.973,2827660000.0
922.992,2817230000.0
923.042,2812610000.0
923.089,2815390000.0
923.114,2816910000.0
923.138,2818360000.0
923.144,2818720000.0
923.15,2819090000.0
923.156,2819450000.0
923.162,2819820000.0
923.187,2821340000.0
923.211,2822800000.0
923.261,2825920000.0
923.308,2836470000.0
923.355,2878790000.0
923.402,2955470000.0
923.405,2961250000.0
923.455,3066490000.0
923.555,3293820000.0
923.655,3497190000.0
923.705,3584410000.0
923.755,3661720000.0
923.794,3716950000.0
923.872,3812380000.0
923.95,3890920000.0
924.028,3956770000.0
924.183,4059480000.0
924.338,4135360000.0
924.436,4174330000.0
924.633,4234870000.0
924.688,4247920000.0
924.798,4268600000.0
924.939,4282960000.0
925.064,4281490000.0
925.189,4261670000.0
925.314,4216220000.0
925.439,4134070000.0
925.509,4065370000.0
925.579,3977770000.0
925.649,3867100000.0
925.719,3733760000.0
925.789,3576760000.0
925.859,3404720000.0
925.97,3138050000.0
926.018,3054540000.0
926.067,3010240000.0
926.116,3004260000.0
926.164,3007290000.0
926.189,3008900000.0
926.214,3010510000.0
926.22,3010890000.0
926.226,3011280000.0
926.232,3011660000.0
926.238,3012050000.0
926.263,3013660000.0
926.287,3015200000.0
926.337,3018510000.0
926.385,3030790000.0
926.433,3081230000.0
926.481,3171470000.0
926.532,3297260000.0
926.582,3434100000.0
926.682,3712530000.0
926.777,3953830000.0
926.873,4160860000.0
926.969,4332280000.0
927.064,4472860000.0
927.16,4589430000.0
927.255,4687500000.0
927.263,4694890000.0
927.313,4738780000.0
927.413,4815640000.0
927.613,4941790000.0
927.813,5042910000.0
927.875,5070180000.0
927.999,5119370000.0
928.247,5202920000.0
928.487,5267800000.0
928.967,5345340000.0
929.097,5349210000.0
929.357,5320020000.0
929.487,5278290000.0
929.617,5209300000.0
929.706,5143100000.0
929.794,5058310000.0
929.883,4951020000.0
929.971,4813810000.0
930.06,4645580000.0
930.098,4563200000.0
930.174,4377350000.0
930.25,4166270000.0
930.326,3936700000.0
930.478,3490930000.0
930.491,3458780000.0
930.541,3361910000.0
930.589,3313700000.0
930.639,3307330000.0
930.687,3310620000.0
930.711,3312300000.0
930.736,3314060000.0
930.742,3314470000.0
930.748,3314890000.0
930.754,3315320000.0
930.76,3315730000.0
930.785,3317480000.0
930.809,3319170000.0
930.859,3322770000.0
930.907,3336040000.0
930.955,3391520000.0
931.003,3491690000.0
931.005,3497030000.0
931.055,3637610000.0
931.105,3796420000.0
931.155,3962920000.0
931.255,4295370000.0
931.398,4723970000.0
931.47,4908450000.0
931.541,5074350000.0
931.684,5354470000.0
931.79,5527030000.0
931.896,5673640000.0
932.107,5907920000.0
932.319,6087950000.0
932.531,6232590000.0
932.742,6351770000.0
933.033,6490530000.0
933.614,6713440000.0
934.195,6891140000.0
934.276,6913090000.0
934.438,6954810000.0
934.761,7028420000.0
935.408,7116770000.0
935.514,7119310000.0
935.726,7108680000.0
935.937,7070630000.0
936.149,6991130000.0
936.36,6853250000.0
936.572,6636200000.0
936.662,6511380000.0
936.753,6364770000.0
936.844,6191870000.0
936.934,5991730000.0
937.025,5764580000.0
937.116,5503270000.0
937.148,5401860000.0
937.213,5186990000.0
937.343,4716860000.0
937.473,4235970000.0
937.544,4011730000.0
937.58,3926540000.0
937.615,3867110000.0
937.642,3842190000.0
937.692,3834080000.0
937.741,3837900000.0
937.766,3839880000.0
937.791,3841880000.0
937.797,3842360000.0
937.803,3842840000.0
937.809,3843320000.0
937.815,3843800000.0
937.84,3845800000.0
937.865,3847790000.0
937.915,3851890000.0
937.964,3868020000.0
938.013,3935140000.0
938.062,4055340000.0
938.111,4214790000.0
938.16,4396500000.0
938.258,4789250000.0
938.356,5181230000.0
938.458,5562090000.0
938.56,5909090000.0
938.662,6219320000.0
938.757,6482800000.0
938.853,6719320000.0
939.044,7124200000.0
939.14,7294060000.0
939.235,7449370000.0
939.427,7713580000.0
939.618,7930490000.0
939.809,8112560000.0
940.191,8397800000.0
940.434,8545240000.0
940.92,8795060000.0
941.405,9009220000.0
942.015,9243940000.0
942.894,9549970000.0
943.773,9833230000.0
944.625,10080300000.0
945.478,10288200000.0
946.279,10408600000.0
947.079,10360500000.0
947.479,10204700000.0
947.879,9885780000.0
948.08,9638080000.0
948.28,9304030000.0
948.48,8874870000.0
948.68,8337920000.0
948.88,7681170000.0
949.08,6894150000.0
949.28,5978680000.0
949.48,5113980000.0
949.53,4976210000.0
949.58,4904980000.0
949.63,4896040000.0
949.68,4900890000.0
949.705,4903370000.0
949.73,4905840000.0
949.737,4906540000.0
949.743,4907120000.0
949.749,4907720000.0
949.755,4908320000.0
949.781,4910900000.0
949.806,4913380000.0
949.856,4918440000.0
949.906,4937390000.0
949.956,5019140000.0
950.006,5168010000.0
950.056,5366640000.0
950.106,5593760000.0
950.156,5837680000.0
950.256,6343760000.0
950.406,7081720000.0
950.556,7750810000.0
950.706,8354580000.0
950.806,8719940000.0
951.006,9375290000.0
951.205,9934180000.0
951.405,10408700000.0
951.605,10802400000.0
951.805,11140000000.0
952.004,11429500000.0
952.404,11904600000.0
952.407,11908000000.0
952.457,11959700000.0
952.557,12058700000.0
952.757,12241000000.0
952.957,12405400000.0
953.157,12555200000.0
953.357,12693800000.0
953.557,12822900000.0
953.757,12944400000.0
953.957,13059200000.0
954.008,13087600000.0
954.11,13143500000.0
954.314,13251800000.0
954.721,13457200000.0
955.537,13835500000.0
955.609,13867500000.0
955.753,13930900000.0
956.042,14056000000.0
956.618,14304300000.0
957.211,14551900000.0
958.397,15039300000.0
958.812,15209500000.0
959.643,15550100000.0
960.413,15867500000.0
960.776,16022100000.0
961.14,16173100000.0
961.376,16271400000.0
961.611,16369400000.0
962.081,16565900000.0
963.021,16961800000.0
963.251,17059100000.0
963.71,17254600000.0
964.629,17649000000.0
964.89,17761900000.0
965.412,17988500000.0
966.456,18445300000.0
966.53,18477900000.0
966.678,18543100000.0
966.975,18673600000.0
967.567,18934300000.0
968.169,19197900000.0
969.372,19716400000.0
969.809,19900200000.0
970.683,20258300000.0
971.448,20470400000.0
971.653,20404900000.0
971.858,20344900000.0
971.908,20331000000.0
972.008,20298500000.0
972.208,20113100000.0
972.268,20061100000.0
972.37,19977000000.0
972.473,19897300000.0
972.499,19878000000.0
972.524,19859700000.0
972.531,19854500000.0
972.537,19850200000.0
972.543,19845800000.0
972.55,19840800000.0
972.575,19823000000.0
972.601,19804800000.0
972.653,19769100000.0
972.703,19762300000.0
972.803,19757800000.0
972.806,19757700000.0
972.856,19755600000.0
972.956,19751900000.0
973.156,19745700000.0
973.216,19744200000.0
973.336,19754000000.0
973.576,19936300000.0
973.626,19974800000.0
973.726,20052600000.0
973.926,20210700000.0
974.326,20596200000.0
975.126,21408200000.0
975.265,21552000000.0
975.544,21801800000.0
976.101,22278600000.0
976.905,22868600000.0
978.512,24028800000.0
978.544,24050900000.0
978.608,24095100000.0
978.735,24180200000.0
978.989,24346500000.0
979.498,24685000000.0
980.184,25147700000.0
981.556,26002100000.0
981.823,26158700000.0
982.357,26472500000.0
983.424,27103200000.0
983.463,27126200000.0
983.54,27172100000.0
983.694,27264100000.0
984.003,27449100000.0
984.62,27823300000.0
985.102,28117100000.0
986.065,28710100000.0
986.742,29132500000.0
988.095,29991500000.0
988.381,30173200000.0
988.953,30539900000.0
990.021,31235000000.0
991.66,32314500000.0
993.3,33452000000.0
996.58,35822200000.0
996.65,35874600000.0
996.79,35979600000.0
997.07,36190300000.0
997.63,36618900000.0
998.75,37487200000.0
1000.0,38470700000.0
1001.912,39978700000.0
1003.824,41524500000.0
1005.553,42953200000.0
1007.282,44406500000.0
1009.011,45873000000.0
1010.74,47328100000.0
1012.469,48738100000.0
1014.199,50042200000.0
1015.928,51122100000.0
1017.657,51736200000.0
1018.521,51755300000.0
1019.386,51477000000.0
1020.25,50809800000.0
1021.115,49661700000.0
1021.547,48877500000.0
1021.979,47920800000.0
1022.412,46706700000.0
1022.844,45184800000.0
1023.276,43289400000.0
1023.708,40913700000.0
1023.925,39564400000.0
1024.141,37826400000.0
1024.357,35952000000.0
1024.573,33902200000.0
1024.624,33351300000.0
1024.674,32811300000.0
1024.724,32267300000.0
1024.774,31717400000.0
1024.824,31144900000.0
1024.874,30562000000.0
1024.924,29951800000.0
1024.974,29320800000.0
1025.006,28909800000.0
1025.069,28068900000.0
1025.196,26144100000.0
1025.259,25053100000.0
1025.322,23910300000.0
1025.438,21791300000.0
1025.492,20939100000.0
1025.546,20306100000.0
1025.596,20019800000.0
1025.646,19985500000.0
1025.654,19987900000.0
1025.681,19997000000.0
1025.708,20006100000.0
1025.715,20008500000.0
1025.72,20010200000.0
1025.722,20010900000.0
1025.729,20013300000.0
1025.736,20015600000.0
1025.763,20024800000.0
1025.79,20034000000.0
1025.844,20066000000.0
1025.898,20294700000.0
1025.925,20545000000.0
1025.952,20873100000.0
1026.005,21714400000.0
1026.056,22649500000.0
1026.106,23617500000.0
1026.156,24606600000.0
1026.206,25562000000.0
1026.256,26491400000.0
1026.306,27368200000.0
1026.356,28193500000.0
1026.406,28965300000.0
1026.438,29434100000.0
1026.501,30308700000.0
1026.628,31996700000.0
1026.87,34934200000.0
1027.112,37579300000.0
1027.355,39969600000.0
1027.597,42187500000.0
1027.839,44036100000.0
1028.082,45815500000.0
1028.566,48939100000.0
1028.6,49124400000.0
1028.668,49494400000.0
1028.803,50232600000.0
1029.073,51670400000.0
1029.614,54129700000.0
1030.155,56335400000.0
1030.329,56995300000.0
1030.676,58338100000.0
1031.37,61064500000.0
1032.058,63510000000.0
1032.745,65569900000.0
1033.433,67406900000.0
1033.787,68299500000.0
1034.495,69821100000.0
1035.516,71860400000.0
1036.381,73916700000.0
1037.246,76166500000.0
1038.975,79969000000.0
1040.704,83097600000.0
1042.433,86134300000.0
1044.162,89129800000.0
1045.892,92200100000.0
1047.621,95301100000.0
1048.81,97452800000.0
1050.0,99659800000.0
1052.38,104052000000.0
1055.0,109018000000.0
1057.62,114098000000.0
1060.0,118989000000.0
1064.76,129989000000.0
1065.0,130554000000.0
1065.48,131684000000.0
1066.441,133959000000.0
1068.363,138555000000.0
1070.0,142427000000.0
1073.273,150456000000.0
1075.0,154770000000.0
1078.453,164055000000.0
1080.0,168684000000.0
1081.538,173407000000.0
1083.077,178146000000.0
1086.155,187683000000.0
1086.538,188887000000.0
1087.304,191312000000.0
1088.835,196235000000.0
1090.0,200050000000.0
1092.33,207833000000.0
1095.0,217065000000.0
1097.67,226645000000.0
1100.0,235265000000.0
1104.661,253304000000.0
1105.0,254660000000.0
1105.679,257393000000.0
1107.036,262933000000.0
1109.751,274235000000.0
1110.0,275287000000.0
1110.498,277405000000.0
1111.494,281668000000.0
1113.486,290338000000.0
1115.0,297062000000.0
1118.027,310800000000.0
1120.0,319894000000.0
1123.945,338293000000.0
1125.0,343242000000.0
1127.109,352977000000.0
1130.0,365833000000.0
1131.154,370835000000.0
1132.308,375606000000.0
1134.616,384637000000.0
1136.154,390009000000.0
1139.23,399393000000.0
1140.0,401186000000.0
1141.539,404590000000.0
1144.617,409358000000.0
1145.0,409885000000.0
1145.766,410285000000.0
1147.297,411254000000.0
1150.0,411534000000.0
1152.703,410542000000.0
1155.406,407869000000.0
1158.109,403917000000.0
1160.812,400116000000.0
1163.516,396028000000.0
1165.769,393501000000.0
1170.276,391281000000.0
1174.783,392860000000.0
1179.29,398366000000.0
1181.538,402811000000.0
1185.628,413710000000.0
1189.718,426706000000.0
1191.767,432464000000.0
1193.816,436899000000.0
1195.866,439701000000.0
1197.915,441243000000.0
1199.964,442101000000.0
1202.014,442098000000.0
1204.063,439852000000.0
1205.087,436862000000.0
1206.112,432534000000.0
1206.113,432528000000.0
1206.163,432251000000.0
1206.213,431975000000.0
1206.263,431705000000.0
1206.313,431439000000.0
1206.363,431178000000.0
1206.413,430922000000.0
1206.463,430671000000.0
1206.513,430387000000.0
1206.563,430004000000.0
1206.614,429629000000.0
1206.664,429261000000.0
1206.714,428899000000.0
1206.764,428545000000.0
1206.814,428197000000.0
1206.864,427855000000.0
1206.914,427520000000.0
1206.964,427191000000.0
1207.014,426827000000.0
1207.064,426364000000.0
1207.114,425911000000.0
1207.164,425467000000.0
1207.214,425033000000.0
1207.264,424608000000.0
1207.314,424191000000.0
1207.364,423783000000.0
1207.414,423384000000.0
1207.464,422991000000.0
1207.514,422573000000.0
1207.564,422086000000.0
1207.615,421609000000.0
1207.665,421143000000.0
1207.715,420676000000.0
1207.765,420215000000.0
1207.815,419764000000.0
1207.865,419322000000.0
1207.915,418888000000.0
1207.965,418462000000.0
1208.015,418022000000.0
1208.065,417534000000.0
1208.115,417056000000.0
1208.162,416615000000.0
1208.256,415751000000.0
1208.444,414117000000.0
1208.82,410103000000.0
1209.572,400342000000.0
1210.211,391828000000.0
1211.489,371292000000.0
1212.261,358606000000.0
1213.804,335218000000.0
1214.31,329455000000.0
1214.816,323251000000.0
1214.822,323135000000.0
1214.872,322093000000.0
1214.922,320861000000.0
1214.972,319366000000.0
1215.022,317709000000.0
1215.072,315851000000.0
1215.122,313545000000.0
1215.172,310673000000.0
1215.222,307141000000.0
1215.272,302973000000.0
1215.323,298244000000.0
1215.335,297038000000.0
1215.385,291934000000.0
1215.435,287240000000.0
1215.463,285050000000.0
1215.519,282513000000.0
1215.575,282190000000.0
1215.591,282238000000.0
1215.623,282342000000.0
1215.655,282445000000.0
1215.663,282471000000.0
1215.67,282493000000.0
1215.679,282522000000.0
1215.687,282549000000.0
1215.719,282651000000.0
1215.751,282755000000.0
1215.815,283341000000.0
1215.879,286652000000.0
1215.911,289583000000.0
1215.943,293064000000.0
1216.007,300764000000.0
1216.135,316022000000.0
1216.262,328693000000.0
1216.39,339386000000.0
1216.52,349062000000.0
1216.65,356827000000.0
1216.78,364248000000.0
1217.032,378600000000.0
1217.536,405309000000.0
1218.544,456332000000.0
1219.081,478974000000.0
1219.618,503610000000.0
1220.156,524573000000.0
1220.693,541341000000.0
1221.131,556087000000.0
1221.569,570672000000.0
1222.007,577740000000.0
1222.882,596806000000.0
1223.18,604832000000.0
1223.775,619679000000.0
1224.966,643537000000.0
1225.229,647512000000.0
1225.756,654643000000.0
1226.809,665921000000.0
1227.279,670380000000.0
1228.219,679606000000.0
1229.328,691126000000.0
1231.378,713598000000.0
1233.427,736088000000.0
1235.476,757641000000.0
1237.526,778241000000.0
1239.575,797515000000.0
1241.625,816663000000.0
1245.725,856834000000.0
1249.825,899221000000.0
1250.812,908811000000.0
1252.786,930405000000.0
1256.733,973505000000.0
1260.0,1013320000000.0
1263.267,1058510000000.0
1265.0,1082020000000.0
1268.466,1125970000000.0
1270.0,1147600000000.0
1273.068,1190980000000.0
1275.0,1217300000000.0
1278.863,1278780000000.0
1280.0,1296370000000.0
1282.273,1330390000000.0
1285.0,1366850000000.0
1287.727,1405770000000.0
1290.0,1439450000000.0
1294.547,1513410000000.0
1295.0,1521320000000.0
1295.906,1537310000000.0
1297.719,1568800000000.0
1300.0,1607430000000.0
1305.0,1687150000000.0
1310.0,1769880000000.0
1315.0,1856820000000.0
1320.0,1947600000000.0
1325.0,2042840000000.0
1330.0,2143590000000.0
1335.0,2248430000000.0
1340.0,2354940000000.0
1345.0,2463300000000.0
1350.0,2576060000000.0
1355.0,2695370000000.0
1360.0,2816520000000.0
1365.0,2942380000000.0
1370.0,3074240000000.0
1374.231,3187190000000.0
1378.462,3302540000000.0
1379.231,3323970000000.0
1380.0,3345530000000.0
1381.538,3389050000000.0
1384.614,3477520000000.0
1385.0,3488720000000.0
1385.771,3511200000000.0
1387.314,3556440000000.0
1390.0,3636130000000.0
1395.0,3788470000000.0
1400.0,3946220000000.0
1405.0,4110010000000.0
1410.0,4280890000000.0
1415.0,4457100000000.0
1420.0,4636920000000.0
1425.0,4822340000000.0
1430.0,5013770000000.0
1435.0,5207770000000.0
1440.0,5402370000000.0
1445.0,5599880000000.0
1450.0,5801860000000.0
1455.0,6008020000000.0
1460.0,6219960000000.0
1465.0,6437510000000.0
1470.0,6668040000000.0
1473.462,6834960000000.0
1476.923,7007850000000.0
1478.462,7086850000000.0
1480.0,7167450000000.0
1483.076,7333340000000.0
1485.0,7440300000000.0
1488.848,7660220000000.0
1490.0,7727000000000.0
1492.304,7860990000000.0
1495.0,8016600000000.0
1500.0,8299300000000.0
1505.0,8579690000000.0
1510.0,8874290000000.0
1515.0,9194990000000.0
1520.0,9532820000000.0
1525.0,9854450000000.0
1530.0,10126000000000.0
1535.0,10348800000000.0
1540.0,10558400000000.0
1545.0,10792100000000.0
1550.0,11066900000000.0
1555.0,11379700000000.0
1560.0,11710600000000.0
1565.0,12032000000000.0
1570.0,12324500000000.0
1572.692,12470100000000.0
1575.385,12609900000000.0
1577.692,12728700000000.0
1580.0,12849100000000.0
1584.616,13103300000000.0
1585.0,13126000000000.0
1585.768,13171400000000.0
1587.304,13265100000000.0
1590.0,13439300000000.0
1595.0,13801400000000.0
1600.0,14220200000000.0
1605.0,14702100000000.0
1610.0,15254100000000.0
1615.0,15884200000000.0
1620.0,16602100000000.0
1625.0,17419900000000.0
1630.0,18352800000000.0
1635.0,19418600000000.0
1640.0,20640600000000.0
1645.0,22049400000000.0
1650.0,23690300000000.0
1652.5,24575700000000.0
1655.0,25619900000000.0
1657.5,26714400000000.0
1660.0,28025000000000.0
1662.5,29429700000000.0
1665.0,31130200000000.0
1667.5,33009400000000.0
1670.0,35333200000000.0
1671.923,37286100000000.0
1673.846,39501900000000.0
1674.807,40794500000000.0
1675.769,42164500000000.0
1676.73,43478000000000.0
1676.923,43757900000000.0
1677.423,44508700000000.0
1678.423,46127600000000.0
1680.0,49048600000000.0
1681.577,52082200000000.0
1683.154,55393500000000.0
1684.731,59273500000000.0
1685.0,60001900000000.0
1685.538,61497100000000.0
1686.614,64175400000000.0
1687.689,67141100000000.0
1688.765,70488800000000.0
1690.0,74822800000000.0
1691.235,79199900000000.0
1693.705,88729400000000.0
1694.353,91641000000000.0
1695.0,94733000000000.0
1696.295,100758000000000.0
1698.884,113904000000000.0
1700.0,120543000000000.0
1701.116,127142000000000.0
1703.348,141033000000000.0
1704.174,146868000000000.0
1705.0,153105000000000.0
1706.652,165152000000000.0
1708.304,177895000000000.0
1709.956,192289000000000.0
1710.0,192697000000000.0
1710.5,197448000000000.0
1711.5,205623000000000.0
1712.5,214305000000000.0
1714.5,233379000000000.0
1715.0,238537000000000.0
1716.0,248373000000000.0
1718.0,267672000000000.0
1720.0,289224000000000.0
1722.0,310025000000000.0
1725.0,343397000000000.0
1728.0,375763000000000.0
1730.0,398831000000000.0
1734.0,442508000000000.0
