Wavelength,Flux
900.0,8318940.0
903.442,9178530.0
904.998,9593150.0
906.554,10024800.0
908.11,10474200.0
909.667,10942200.0
910.703,11264200.0
911.74,11595000.0
911.84,11627400.0
912.0,11679400.0
912.31,11780700.0
912.779,11935400.0
913.717,12250600.0
914.335,12462300.0
915.329,12809900.0
915.824,12986300.0
915.892,13010700.0
916.028,13059900.0
916.3,13158300.0
916.429,13204900.0
916.686,13300100.0
917.181,13481300.0
917.448,13587600.0
917.982,13785400.0
918.129,13837200.0
918.423,13977300.0
919.004,14226800.0
919.351,14308700.0
919.698,14533800.0
920.045,14714600.0
920.56,14943900.0
920.761,14947500.0
920.963,14953100.0
921.064,14994600.0
921.165,15124700.0
921.265,15249800.0
921.366,15336300.0
921.467,15404200.0
921.568,15464700.0
921.668,15523400.0
921.769,15579900.0
921.87,15635000.0
921.971,15689000.0
922.071,15742200.0
922.117,15766000.0
922.208,15813000.0
922.39,15903900.0
922.506,15957700.0
922.738,16033500.0
922.895,15985000.0
922.992,15860300.0
923.089,15843400.0
923.114,15854200.0
923.138,15864500.0
923.144,15867100.0
923.15,15869700.0
923.156,15872300.0
923.162,15874800.0
923.187,15885600.0
923.211,15895900.0
923.261,15920100.0
923.308,15999100.0
923.402,16223900.0
923.405,16230200.0
923.455,16323200.0
923.555,16452000.0
923.755,16624500.0
923.794,16651700.0
923.872,16703300.0
924.028,16799600.0
924.183,16893000.0
924.436,17040800.0
924.688,17185200.0
924.939,17326400.0
925.189,17462500.0
925.579,17644700.0
925.774,17672400.0
925.97,17493400.0
926.067,17253800.0
926.116,17196800.0
926.164,17216900.0
926.189,17228500.0
926.214,17240100.0
926.22,17242900.0
926.226,17245700.0
926.232,17248500.0
926.238,17251200.0
926.263,17262900.0
926.287,17274000.0
926.337,17299800.0
926.385,17403800.0
926.481,17748400.0
926.532,17894500.0
926.632,18103300.0
926.832,18342300.0
926.873,18377500.0
926.955,18445600.0
927.119,18566700.0
927.263,18664500.0
927.551,18849200.0
927.875,19049200.0
928.487,19421600.0
929.097,19793700.0
929.706,20143000.0
930.098,20285700.0
930.295,20231500.0
930.491,19842900.0
930.589,19485300.0
930.638,19411200.0
930.687,19435100.0
930.711,19447500.0
930.736,19460500.0
930.742,19463600.0
930.748,19466700.0
930.754,19469800.0
930.76,19472900.0
930.785,19485900.0
930.809,19498400.0
930.859,19526100.0
930.907,19651700.0
930.957,19890400.0
931.005,20125000.0
931.101,20506700.0
931.197,20761700.0
931.293,20940800.0
931.398,21090200.0
931.608,21315400.0
931.79,21471100.0
932.155,21745300.0
932.884,22253400.0
933.033,22355900.0
933.331,22561600.0
933.926,22973700.0
934.276,23217400.0
934.976,23708100.0
935.514,24084900.0
936.589,24795600.0
936.753,24876500.0
937.08,24933000.0
937.148,24906500.0
937.283,24773200.0
937.414,24493100.0
937.544,23982400.0
937.642,23488200.0
937.692,23389000.0
937.741,23418200.0
937.766,23433600.0
937.791,23449000.0
937.797,23452600.0
937.803,23456300.0
937.809,23460000.0
937.815,23463700.0
937.84,23479100.0
937.865,23494400.0
937.915,23526500.0
937.964,23687800.0
938.014,23993700.0
938.062,24313600.0
938.158,24848800.0
938.254,25258600.0
938.35,25575500.0
938.458,25842100.0
938.674,26210100.0
938.853,26440400.0
939.212,26825800.0
939.93,27474900.0
940.434,27905600.0
941.443,28765800.0
942.015,29258300.0
942.894,30023700.0
943.773,30807500.0
944.625,31575200.0
945.478,32354100.0
947.079,33833700.0
947.88,34522900.0
948.68,34877700.0
948.88,34748800.0
949.08,34417600.0
949.28,33779000.0
949.48,32662700.0
949.58,31973300.0
949.63,31844200.0
949.68,31884300.0
949.705,31904600.0
949.73,31924900.0
949.737,31930600.0
949.743,31935500.0
949.749,31940400.0
949.755,31945300.0
949.781,31966400.0
949.806,31986900.0
949.856,32028200.0
949.906,32240400.0
949.956,32646000.0
950.006,33103400.0
950.106,33915000.0
950.206,34591300.0
950.306,35167000.0
950.406,35632000.0
950.606,36385200.0
950.806,36941300.0
951.006,37361000.0
951.406,38015000.0
952.205,39029700.0
952.407,39266000.0
952.811,39727200.0
953.62,40645300.0
954.008,41087500.0
954.784,41978900.0
955.609,42939300.0
957.211,44847800.0
958.812,46830200.0
960.413,48889200.0
960.776,49367300.0
961.14,49850000.0
961.376,50163800.0
961.611,50477400.0
962.081,51110000.0
963.021,52395700.0
963.251,52714600.0
963.71,53358300.0
964.629,54669800.0
964.89,55047500.0
965.412,55809700.0
966.456,57361900.0
966.53,57473600.0
966.678,57697600.0
966.975,58148200.0
967.567,59056200.0
968.169,59985700.0
969.372,61885800.0
969.809,62589400.0
970.683,64016700.0
971.448,65281700.0
971.858,65941100.0
972.268,66580400.0
972.37,66736300.0
972.473,66894200.0
972.499,66933800.0
972.524,66972000.0
972.531,66982800.0
972.537,66992000.0
972.543,67001200.0
972.55,67011800.0
972.575,67050200.0
972.601,67089900.0
972.653,67169600.0
972.703,67251100.0
972.803,67415700.0
972.806,67420700.0
972.856,67503100.0
972.956,67668300.0
973.156,67999500.0
973.216,68099000.0
973.336,68301200.0
973.576,68740600.0
973.626,68832500.0
973.726,69016900.0
973.926,69387300.0
974.326,70144700.0
975.126,71663400.0
975.265,71927600.0
975.544,72452700.0
976.101,73509100.0
976.905,75045100.0
978.512,78207300.0
978.544,78271100.0
978.608,78398700.0
978.735,78654500.0
978.989,79168000.0
979.498,80205500.0
980.184,81626200.0
981.556,84533400.0
981.823,85109700.0
982.357,86272000.0
983.424,88621100.0
983.463,88707000.0
983.54,88879100.0
983.694,89224000.0
984.003,89917700.0
984.62,91321700.0
985.102,92432000.0
986.065,94691600.0
986.742,96310600.0
988.095,99633800.0
988.381,100350000.0
988.953,101799000.0
990.021,104561000.0
991.66,108948000.0
993.3,113488000.0
996.58,123084000.0
996.65,123298000.0
996.79,123726000.0
997.07,124586000.0
997.63,126327000.0
998.75,129880000.0
1000.0,133960000.0
1001.912,140452000.0
1003.824,147221000.0
1005.553,153538000.0
1007.282,160125000.0
1009.011,166984000.0
1010.74,174121000.0
1012.469,181551000.0
1014.199,189267000.0
1015.928,197224000.0
1017.657,205226000.0
1019.386,212979000.0
1021.115,219702000.0
1021.979,221779000.0
1022.844,221564000.0
1023.708,218253000.0
1024.573,211238000.0
1024.624,210705000.0
1024.674,210155000.0
1024.724,209618000.0
1024.774,209091000.0
1024.824,208505000.0
1024.874,207909000.0
1024.924,207262000.0
1024.974,206531000.0
1025.006,206053000.0
1025.069,205107000.0
1025.196,202822000.0
1025.317,199771000.0
1025.438,195881000.0
1025.546,191295000.0
1025.6,189314000.0
1025.654,188825000.0
1025.681,188928000.0
1025.708,189038000.0
1025.715,189066000.0
1025.72,189087000.0
1025.722,189095000.0
1025.729,189123000.0
1025.736,189152000.0
1025.763,189261000.0
1025.79,189371000.0
1025.844,189927000.0
1025.898,191980000.0
1025.952,194831000.0
1026.006,197627000.0
1026.115,202250000.0
1026.332,209527000.0
1026.438,212217000.0
1026.65,217066000.0
1026.87,221506000.0
1027.31,229769000.0
1028.189,244658000.0
1028.6,250844000.0
1029.422,261260000.0
1030.244,269712000.0
1030.329,270519000.0
1030.5,272123000.0
1030.842,275257000.0
1031.525,281258000.0
1032.058,285629000.0
1033.123,293959000.0
1033.787,299073000.0
1035.114,309039000.0
1035.516,312132000.0
1036.32,318360000.0
1037.246,325629000.0
1038.975,339228000.0
1040.704,353094000.0
1042.433,367334000.0
1044.162,381991000.0
1045.892,397237000.0
1047.621,413008000.0
1048.81,424043000.0
1050.0,435386000.0
1052.38,458920000.0
1055.0,485988000.0
1057.62,514375000.0
1060.0,541569000.0
1064.76,599467000.0
1065.0,602541000.0
1065.48,608731000.0
1066.441,621258000.0
1068.363,646810000.0
1070.0,669168000.0
1073.273,716214000.0
1075.0,742149000.0
1078.453,796105000.0
1080.0,821611000.0
1081.538,847782000.0
1083.077,874472000.0
1086.155,929705000.0
1086.538,936808000.0
1087.304,951175000.0
1088.835,980561000.0
1090.0,1003530000.0
1092.33,1050350000.0
1095.0,1106310000.0
1097.67,1165130000.0
1100.0,1218830000.0
1104.661,1331550000.0
1105.0,1340140000.0
1105.679,1357440000.0
1107.036,1392710000.0
1109.751,1465460000.0
1110.0,1472220000.0
1110.498,1485830000.0
1111.494,1513320000.0
1113.486,1569590000.0
1115.0,1613430000.0
1118.027,1702890000.0
1120.0,1762050000.0
1123.945,1882890000.0
1125.0,1915770000.0
1127.109,1980860000.0
1130.0,2069290000.0
1131.154,2104040000.0
1132.308,2137990000.0
1134.616,2205380000.0
1136.154,2248250000.0
1139.23,2330780000.0
1140.0,2349700000.0
1141.539,2388070000.0
1144.617,2463010000.0
1145.0,2472730000.0
1145.766,2490060000.0
1147.297,2527340000.0
1150.0,2593680000.0
1152.703,2661800000.0
1155.406,2729720000.0
1158.109,2797560000.0
1160.812,2869620000.0
1163.516,2944360000.0
1165.769,3014170000.0
1170.276,3176650000.0
1174.783,3363190000.0
1179.29,3570440000.0
1181.538,3682790000.0
1185.628,3902930000.0
1189.718,4139760000.0
1191.767,4261010000.0
1193.816,4382400000.0
1195.866,4502670000.0
1197.915,4623290000.0
1199.964,4744640000.0
1202.014,4868460000.0
1204.063,4992290000.0
1206.113,5110480000.0
1208.162,5215280000.0
1210.211,5304280000.0
1212.261,5373430000.0
1214.31,5465330000.0
1214.822,5499880000.0
1215.335,5531570000.0
1215.463,5528870000.0
1215.591,5524090000.0
1215.623,5526670000.0
1215.655,5529260000.0
1215.663,5529900000.0
1215.67,5530470000.0
1215.679,5531200000.0
1215.687,5531850000.0
1215.719,5534440000.0
1215.751,5537080000.0
1215.815,5547560000.0
1215.879,5566270000.0
1216.007,5598440000.0
1216.263,5645400000.0
1216.52,5693470000.0
1217.032,5786240000.0
1218.056,5977020000.0
1219.081,6157780000.0
1221.131,6495670000.0
1223.18,6782210000.0
1225.229,7061790000.0
1227.279,7292190000.0
1229.328,7523610000.0
1231.378,7766570000.0
1233.427,8014350000.0
1235.476,8264310000.0
1237.526,8517090000.0
1239.575,8771510000.0
1241.625,9031280000.0
1245.725,9573740000.0
1249.825,10146600000.0
1250.812,10286100000.0
1252.786,10577200000.0
1256.733,11176600000.0
1260.0,11704600000.0
1263.267,12268100000.0
1265.0,12572700000.0
1268.466,13186900000.0
1270.0,13473400000.0
1273.068,14059900000.0
1275.0,14434300000.0
1278.863,15240100000.0
1280.0,15480800000.0
1282.273,15965300000.0
1285.0,16541800000.0
1287.727,17143200000.0
1290.0,17661500000.0
1294.547,18760100000.0
1295.0,18874600000.0
1295.906,19105600000.0
1297.719,19571400000.0
1300.0,20163600000.0
1305.0,21478800000.0
1310.0,22866800000.0
1315.0,24336200000.0
1320.0,25888400000.0
1325.0,27531100000.0
1330.0,29272400000.0
1335.0,31108000000.0
1340.0,33027700000.0
1345.0,35035500000.0
1350.0,37149400000.0
1355.0,39386500000.0
1360.0,41721700000.0
1365.0,44176300000.0
1370.0,46763000000.0
1374.231,49037300000.0
1378.462,51398700000.0
1379.231,51838700000.0
1380.0,52282100000.0
1381.538,53179200000.0
1384.614,55013100000.0
1385.0,55246700000.0
1385.771,55716400000.0
1387.314,56665600000.0
1390.0,58349600000.0
1395.0,61598500000.0
1400.0,65000300000.0
1405.0,68565100000.0
1410.0,72305300000.0
1415.0,76215500000.0
1420.0,80287900000.0
1425.0,84542100000.0
1430.0,88986700000.0
1435.0,93602200000.0
1440.0,98377500000.0
1445.0,103335000000.0
1450.0,108491000000.0
1455.0,113850000000.0
1460.0,119430000000.0
1465.0,125235000000.0
1470.0,131331000000.0
1473.462,135725000000.0
1476.923,140262000000.0
1478.462,142329000000.0
1480.0,144427000000.0
1483.076,148721000000.0
1485.0,151475000000.0
1488.848,157126000000.0
1490.0,158852000000.0
1492.304,162342000000.0
1495.0,166478000000.0
1500.0,174277000000.0
1505.0,182291000000.0
1510.0,190667000000.0
1515.0,199518000000.0
1520.0,208779000000.0
1525.0,218165000000.0
1530.0,227383000000.0
1535.0,236420000000.0
1540.0,245585000000.0
1545.0,255231000000.0
1550.0,265542000000.0
1555.0,276513000000.0
1560.0,287971000000.0
1565.0,299644000000.0
1570.0,311332000000.0
1572.692,317628000000.0
1575.385,323953000000.0
1577.692,329433000000.0
1580.0,334999000000.0
1584.616,346476000000.0
1585.0,347460000000.0
1585.768,349435000000.0
1587.304,353437000000.0
1590.0,360647000000.0
1595.0,374721000000.0
1600.0,389793000000.0
1605.0,405963000000.0
1610.0,423337000000.0
1615.0,442014000000.0
1620.0,462064000000.0
1625.0,483553000000.0
1630.0,506548000000.0
1635.0,531018000000.0
1640.0,556941000000.0
1645.0,584272000000.0
1650.0,612949000000.0
1655.0,642874000000.0
1660.0,674250000000.0
1665.0,707080000000.0
1670.0,741602000000.0
1671.923,755279000000.0
1673.846,769426000000.0
1676.923,792964000000.0
1680.0,817813000000.0
1685.0,861798000000.0
1690.0,912624000000.0
1692.5,941253000000.0
1695.0,973851000000.0
1697.5,1009940000000.0
1700.0,1051690000000.0
1702.5,1097090000000.0
1705.0,1152850000000.0
1707.5,1213840000000.0
1710.0,1288900000000.0
1712.5,1369540000000.0
1715.0,1468010000000.0
1717.5,1576870000000.0
1720.0,1707090000000.0
1722.5,1850130000000.0
1725.0,2017480000000.0
1727.5,2194450000000.0
1730.0,2408900000000.0
1732.5,2633200000000.0
1735.0,2893830000000.0
1737.5,3168190000000.0
1740.0,3480850000000.0
1742.5,3800650000000.0
1745.0,4162860000000.0
1747.5,4537330000000.0
1750.0,4954840000000.0
1755.0,5844760000000.0
1757.5,6305490000000.0
1760.0,6803510000000.0
1761.154,7031290000000.0
1763.462,7484150000000.0
1768.078,8438140000000.0
1772.308,9338640000000.0
1780.767,11185500000000.0
1797.686,14786500000000.0
1814.604,18258500000000.0
1821.539,19639900000000.0
1835.409,22370900000000.0
1849.278,25093400000000.0
1863.148,27867700000000.0
1870.769,29427400000000.0
1886.011,32629000000000.0
1901.254,35958600000000.0
1916.496,39422400000000.0
1920.0,40239200000000.0
1927.007,41895500000000.0
1941.022,45306800000000.0
1955.037,48831600000000.0
1969.051,52465100000000.0
1969.231,52512600000000.0
1969.731,52644700000000.0
1970.731,52909100000000.0
1972.731,53436700000000.0
1976.731,54502200000000.0
1984.731,56658200000000.0
2000.731,61049500000000.0
2016.731,65517200000000.0
2018.462,66017100000000.0
2021.924,67010100000000.0
2028.849,68988100000000.0
2042.697,73074400000000.0
2056.546,77277000000000.0
2067.692,80767900000000.0
2078.838,84362700000000.0
2089.984,88029100000000.0
2101.13,91806000000000.0
2112.276,95591800000000.0
2116.923,97208500000000.0
2126.218,100405000000000.0
2144.806,106808000000000.0
2163.395,113082000000000.0
2166.154,113968000000000.0
2171.672,115751000000000.0
2182.707,119308000000000.0
2193.742,122686000000000.0
2204.777,126048000000000.0
2215.385,129219000000000.0
2225.993,132414000000000.0
2236.601,135636000000000.0
2247.209,138939000000000.0
2257.817,142306000000000.0
2264.615,144528000000000.0
2278.212,149072000000000.0
2291.808,153879000000000.0
2305.405,158936000000000.0
2313.846,162266000000000.0
2330.728,169380000000000.0
2347.61,177132000000000.0
2363.077,184757000000000.0
2378.544,192791000000000.0
2394.011,200957000000000.0
2409.479,209080000000000.0
2412.307,210552000000000.0
2417.963,213515000000000.0
2429.276,219128000000000.0
2440.588,224708000000000.0
2451.901,229810000000000.0
2461.538,234153000000000.0
2480.813,242119000000000.0
2500.088,249443000000000.0
2510.769,253221000000000.0
2521.45,256962000000000.0
2532.131,260501000000000.0
2542.812,264003000000000.0
2553.494,267377000000000.0
2560.0,269429000000000.0
2573.013,273382000000000.0
2586.025,277276000000000.0
2599.038,281100000000000.0
2612.051,284848000000000.0
2625.063,288553000000000.0
2638.076,292206000000000.0
2651.089,295811000000000.0
2658.461,297840000000000.0
2673.205,301832000000000.0
2687.949,305845000000000.0
2702.693,309854000000000.0
2717.438,313710000000000.0
2732.182,317499000000000.0
2746.926,321253000000000.0
2756.923,323779000000000.0
2776.918,328755000000000.0
2796.912,333664000000000.0
2816.907,338502000000000.0
2836.902,343269000000000.0
2855.385,347611000000000.0
2873.868,351868000000000.0
2892.352,356059000000000.0
2910.835,360186000000000.0
2929.319,364246000000000.0
2945.1,367659000000000.0
2953.846,369529000000000.0
2971.338,373200000000000.0
2988.829,376807000000000.0
3006.321,380353000000000.0
3023.813,383835000000000.0
3041.304,387253000000000.0
3052.308,389370000000000.0
3063.312,391454000000000.0
3074.315,393513000000000.0
3085.319,395545000000000.0
3096.323,397552000000000.0
3107.326,399533000000000.0
3118.33,401489000000000.0
3129.334,403418000000000.0
3140.337,405322000000000.0
3150.769,407103000000000.0
3161.201,408860000000000.0
3171.632,410594000000000.0
3182.064,412305000000000.0
3187.7,413220000000000.0
3198.972,415029000000000.0
3210.244,416811000000000.0
3221.516,418566000000000.0
3232.788,420294000000000.0
3244.06,421996000000000.0
3249.231,422767000000000.0
3259.573,424294000000000.0
3269.916,425797000000000.0
3280.258,427279000000000.0
3290.6,428737000000000.0
3300.942,430174000000000.0
3311.285,431588000000000.0
3321.627,432979000000000.0
3331.969,434348000000000.0
3342.312,435695000000000.0
3347.692,436388000000000.0
3358.453,437754000000000.0
3369.213,439097000000000.0
3379.974,440417000000000.0
3390.735,441712000000000.0
3401.496,442984000000000.0
3412.256,444232000000000.0
3423.017,445457000000000.0
3433.778,446659000000000.0
3444.539,447837000000000.0
3446.154,448012000000000.0
3449.385,448360000000000.0
3455.847,449048000000000.0
3468.771,450400000000000.0
3481.695,451719000000000.0
3494.618,453004000000000.0
3507.542,454255000000000.0
3520.466,455475000000000.0
3533.39,456662000000000.0
3544.615,457667000000000.0
3555.84,458645000000000.0
3567.065,459597000000000.0
3578.29,460526000000000.0
3589.515,461432000000000.0
3595.868,461933000000000.0
3608.573,462911000000000.0
3621.278,463860000000000.0
3633.983,464778000000000.0
3646.5,465654000000000.0
3647.0,465688000000000.0
3647.12,465696000000000.0
3647.22,465335000000000.0
3647.42,465350000000000.0
3647.819,465379000000000.0
3648.0,465392000000000.0
3648.362,465419000000000.0
3649.085,465471000000000.0
3650.533,465576000000000.0
3653.427,465784000000000.0
3659.216,466197000000000.0
3665.005,466603000000000.0
3668.675,466857000000000.0
3676.014,467359000000000.0
3682.807,467815000000000.0
3686.832,468081000000000.0
3690.13,468297000000000.0
3691.554,468388000000000.0
3694.402,468574000000000.0
3696.486,468707000000000.0
3697.152,468747000000000.0
3698.484,468835000000000.0
3701.148,469005000000000.0
3702.843,469112000000000.0
3703.853,469170000000000.0
3705.0,469248000000000.0
3707.294,469391000000000.0
3709.2,469509000000000.0
3711.971,469668000000000.0
3715.556,469899000000000.0
3721.913,470257000000000.0
3721.938,470259000000000.0
3721.988,470262000000000.0
3722.038,470267000000000.0
3722.088,470273000000000.0
3722.138,470278000000000.0
3722.188,470283000000000.0
3722.238,470289000000000.0
3722.288,470294000000000.0
3722.338,470299000000000.0
3722.388,470303000000000.0
3722.438,470307000000000.0
3722.489,470311000000000.0
3722.539,470315000000000.0
3722.589,470319000000000.0
3722.639,470322000000000.0
3722.689,470326000000000.0
3722.739,470329000000000.0
3722.789,470333000000000.0
3722.839,470336000000000.0
3722.889,470339000000000.0
3722.939,470342000000000.0
3722.989,470345000000000.0
3723.039,470349000000000.0
3723.089,470352000000000.0
3723.139,470355000000000.0
3723.189,470358000000000.0
3723.239,470361000000000.0
3723.289,470364000000000.0
3723.339,470367000000000.0
3723.389,470370000000000.0
3723.439,470373000000000.0
3723.49,470376000000000.0
3723.54,470379000000000.0
3723.59,470382000000000.0
3723.64,470385000000000.0
3723.69,470388000000000.0
3723.74,470391000000000.0
3723.79,470394000000000.0
3723.84,470397000000000.0
3723.89,470400000000000.0
3723.94,470403000000000.0
3723.99,470406000000000.0
3724.04,470409000000000.0
3724.09,470412000000000.0
3724.14,470415000000000.0
3724.19,470418000000000.0
3724.24,470421000000000.0
3724.29,470424000000000.0
3724.34,470427000000000.0
3724.39,470430000000000.0
3724.44,470433000000000.0
3724.49,470436000000000.0
3724.541,470439000000000.0
3724.591,470442000000000.0
3724.641,470445000000000.0
3724.691,470448000000000.0
3724.741,470451000000000.0
3724.791,470454000000000.0
3724.841,470457000000000.0
3724.891,470460000000000.0
3724.941,470462000000000.0
3724.991,470466000000000.0
3725.041,470469000000000.0
3725.091,470472000000000.0
3725.141,470475000000000.0
3725.191,470478000000000.0
3725.241,470480000000000.0
3725.291,470483000000000.0
3725.341,470486000000000.0
3725.391,470489000000000.0
3725.441,470493000000000.0
3725.491,470495000000000.0
3725.542,470498000000000.0
3725.592,470501000000000.0
3725.642,470504000000000.0
3725.692,470507000000000.0
