Wavelength,Flux
900.0,36886400.0
903.442,40467500.0
904.998,42187800.0
906.554,43974300.0
908.11,45829300.0
909.667,47756400.0
910.703,49079000.0
911.74,50436100.0
911.84,50568900.0
912.0,50781800.0
912.31,51196600.0
912.779,51830100.0
913.717,53118400.0
914.335,53983000.0
915.329,55400400.0
915.824,56118700.0
915.892,56218200.0
916.028,56441500.0
916.3,56825300.0
916.429,57008300.0
916.686,57516400.0
917.181,58131900.0
917.448,58895300.0
917.715,59564700.0
917.922,59632400.0
918.129,59576800.0
918.336,60421500.0
918.543,61511100.0
918.75,62139800.0
918.957,62500900.0
919.004,62501600.0
919.098,62243000.0
919.285,61383100.0
919.351,61487300.0
919.417,61591600.0
919.482,61800600.0
919.548,62622200.0
919.68,64092200.0
919.811,64927800.0
919.943,65521100.0
920.206,66404300.0
920.383,66811200.0
920.56,66823900.0
920.737,65409700.0
920.914,64012500.0
920.963,64092600.0
921.013,64174900.0
921.113,64710600.0
921.163,65761000.0
921.213,66847800.0
921.313,68495900.0
921.413,69485800.0
921.513,70209500.0
921.713,71213700.0
921.913,72008800.0
922.113,72703900.0
922.117,72717100.0
922.167,72872900.0
922.267,73158800.0
922.467,73562000.0
922.506,73595000.0
922.584,73580900.0
922.74,72977000.0
922.818,72100400.0
922.895,70614100.0
922.992,68153900.0
923.041,67625100.0
923.089,67681400.0
923.114,67724800.0
923.138,67766200.0
923.144,67776500.0
923.15,67787100.0
923.156,67797500.0
923.162,67807800.0
923.187,67851200.0
923.211,67892800.0
923.261,68012600.0
923.308,68719300.0
923.358,70201500.0
923.405,71743400.0
923.499,74178500.0
923.546,75061800.0
923.593,75810400.0
923.687,76903800.0
923.781,77682300.0
923.794,77771200.0
923.844,78099900.0
923.944,78682100.0
924.144,79677500.0
924.183,79849900.0
924.261,80182000.0
924.417,80807600.0
924.436,80880900.0
924.486,81071600.0
924.586,81441300.0
924.688,81804800.0
924.892,82490400.0
924.939,82638500.0
925.033,82921000.0
925.189,83333800.0
925.501,83685900.0
925.579,83550800.0
925.734,82593900.0
925.812,81579900.0
925.89,79871600.0
925.93,78689100.0
925.97,77306000.0
926.05,74301400.0
926.067,73807600.0
926.117,73136100.0
926.165,73196800.0
926.189,73241500.0
926.214,73287900.0
926.22,73299100.0
926.226,73310300.0
926.232,73321500.0
926.238,73332500.0
926.263,73379200.0
926.287,73423800.0
926.337,73553000.0
926.385,74411800.0
926.435,76325300.0
926.482,78418600.0
926.576,82029100.0
926.623,83415000.0
926.67,84539200.0
926.764,86329700.0
926.858,87574900.0
926.873,87738800.0
926.923,88238000.0
927.023,89122000.0
927.223,90465900.0
927.263,90694000.0
927.343,91121800.0
927.503,91892400.0
927.824,93269800.0
927.875,93479300.0
927.978,93891900.0
928.184,94695700.0
928.487,95836300.0
929.094,97931000.0
929.097,97941900.0
929.147,98098400.0
929.247,98398500.0
929.447,98926800.0
929.647,99290000.0
929.706,99344900.0
929.824,99341800.0
930.06,98478600.0
930.098,98154600.0
930.174,97244300.0
930.25,95884000.0
930.325,94008800.0
930.401,91376800.0
930.477,87916400.0
930.491,87208200.0
930.541,84700800.0
930.589,82739500.0
930.639,81974600.0
930.687,82046100.0
930.711,82095700.0
930.736,82147100.0
930.742,82159500.0
930.748,82171800.0
930.754,82184300.0
930.76,82196700.0
930.785,82248100.0
930.809,82297700.0
930.859,82437200.0
930.907,83404700.0
930.957,85710800.0
931.005,88386400.0
931.055,91138600.0
931.155,95736400.0
931.205,97555100.0
931.255,99076400.0
931.355,101555000.0
931.398,102389000.0
931.484,103755000.0
931.657,105721000.0
931.79,106843000.0
932.057,108552000.0
932.591,111148000.0
933.033,113077000.0
933.918,116779000.0
934.276,118244000.0
934.992,121111000.0
935.514,123095000.0
936.036,124802000.0
936.558,125588000.0
936.753,125203000.0
936.948,124063000.0
937.045,123027000.0
937.143,121432000.0
937.148,121328000.0
937.198,120200000.0
937.298,117162000.0
937.348,115133000.0
937.398,112879000.0
937.448,110203000.0
937.498,107256000.0
937.544,104245000.0
937.636,98902000.0
937.642,98645900.0
937.692,97710800.0
937.741,97796000.0
937.766,97856300.0
937.791,97916800.0
937.797,97931200.0
937.803,97945700.0
937.809,97960300.0
937.815,97974700.0
937.84,98035300.0
937.865,98095800.0
937.915,98255300.0
937.964,99435600.0
938.014,102262000.0
938.062,105606000.0
938.112,109198000.0
938.212,115489000.0
938.262,118124000.0
938.312,120533000.0
938.412,124383000.0
938.458,125830000.0
938.55,128212000.0
938.734,131719000.0
938.853,133483000.0
939.09,136118000.0
939.327,138099000.0
939.801,141191000.0
940.275,143796000.0
940.434,144620000.0
940.751,146220000.0
941.386,149344000.0
942.015,152408000.0
942.894,156683000.0
943.773,160974000.0
944.625,165171000.0
945.478,169384000.0
947.079,176826000.0
947.479,178259000.0
947.88,179123000.0
948.28,178750000.0
948.68,175366000.0
948.88,171393000.0
949.08,165140000.0
949.18,160698000.0
949.28,154867000.0
949.38,147640000.0
949.48,139207000.0
949.53,135035000.0
949.58,131812000.0
949.605,130910000.0
949.63,130654000.0
949.68,130779000.0
949.705,130858000.0
949.73,130936000.0
949.737,130958000.0
949.743,130977000.0
949.749,130996000.0
949.755,131015000.0
949.781,131097000.0
949.806,131176000.0
949.856,131366000.0
949.906,132850000.0
949.956,136421000.0
950.006,140972000.0
950.056,145766000.0
950.156,154510000.0
950.256,161959000.0
950.356,168039000.0
950.406,170614000.0
950.506,175027000.0
950.707,182428000.0
950.806,185340000.0
951.005,189953000.0
951.203,193510000.0
951.402,196344000.0
951.8,200720000.0
952.197,204138000.0
952.407,205764000.0
952.827,208790000.0
953.666,214432000.0
954.008,216663000.0
954.692,221073000.0
955.609,226956000.0
957.211,237409000.0
958.812,248168000.0
960.413,259218000.0
960.776,261773000.0
961.14,264347000.0
961.376,266029000.0
961.611,267712000.0
962.081,271110000.0
963.021,278015000.0
963.251,279725000.0
963.71,283172000.0
964.629,290179000.0
964.89,292199000.0
965.412,296274000.0
966.456,304498000.0
966.53,305090000.0
966.678,306273000.0
966.975,308653000.0
967.567,313453000.0
968.169,318374000.0
969.372,328394000.0
969.809,332090000.0
970.683,339573000.0
971.448,346034000.0
971.858,348981000.0
972.268,351443000.0
972.37,351992000.0
972.473,352535000.0
972.499,352668000.0
972.524,352795000.0
972.531,352832000.0
972.537,352862000.0
972.543,352893000.0
972.55,352928000.0
972.575,353056000.0
972.601,353189000.0
972.653,353455000.0
972.703,353802000.0
972.803,354528000.0
972.806,354549000.0
972.856,354912000.0
972.956,355638000.0
973.156,357093000.0
973.216,357530000.0
973.336,358450000.0
973.576,360906000.0
973.626,361420000.0
973.726,362453000.0
973.926,364534000.0
974.326,368948000.0
975.126,377768000.0
975.265,379314000.0
975.544,382307000.0
976.101,388271000.0
976.905,396715000.0
978.512,413919000.0
978.544,414259000.0
978.608,414944000.0
978.735,416310000.0
978.989,419042000.0
979.498,424565000.0
980.184,432058000.0
981.556,447160000.0
981.823,450128000.0
982.357,456122000.0
983.424,468335000.0
983.463,468782000.0
983.54,469677000.0
983.694,471472000.0
984.003,475081000.0
984.62,482389000.0
985.102,488166000.0
986.065,499918000.0
986.742,508333000.0
988.095,525479000.0
988.381,529165000.0
988.953,536546000.0
990.021,550523000.0
991.66,572621000.0
993.3,595678000.0
996.58,644560000.0
996.65,645647000.0
996.79,647821000.0
997.07,652199000.0
997.63,661048000.0
998.75,679076000.0
1000.0,699409000.0
1001.912,731476000.0
1003.824,764956000.0
1005.553,796484000.0
1007.282,829221000.0
1009.011,863185000.0
1010.74,898357000.0
1012.469,934255000.0
1014.199,971024000.0
1015.928,1008030000.0
1017.657,1043750000.0
1019.386,1074150000.0
1020.25,1085280000.0
1021.115,1090600000.0
1021.979,1086680000.0
1022.844,1066410000.0
1023.276,1047910000.0
1023.708,1023350000.0
1024.141,991113000.0
1024.573,949218000.0
1024.624,943179000.0
1024.674,937111000.0
1024.724,930858000.0
1024.774,924409000.0
1024.824,917593000.0
1024.874,910441000.0
1024.924,902903000.0
1024.974,894667000.0
1025.006,889529000.0
1025.069,879132000.0
1025.196,852525000.0
1025.259,835414000.0
1025.322,814723000.0
1025.438,769125000.0
1025.492,743896000.0
1025.546,719358000.0
1025.596,702629000.0
1025.646,697586000.0
1025.654,697623000.0
1025.681,697976000.0
1025.708,698357000.0
1025.715,698454000.0
1025.72,698525000.0
1025.722,698556000.0
1025.729,698653000.0
1025.736,698752000.0
1025.763,699133000.0
1025.79,699516000.0
1025.844,702364000.0
1025.871,708233000.0
1025.898,717965000.0
1025.952,742965000.0
1026.005,770063000.0
1026.056,793876000.0
1026.106,815831000.0
1026.156,835507000.0
1026.206,853302000.0
1026.256,868909000.0
1026.306,882894000.0
1026.356,895327000.0
1026.406,906587000.0
1026.438,913154000.0
1026.501,925724000.0
1026.628,950007000.0
1026.87,990319000.0
1027.112,1025840000.0
1027.597,1088290000.0
1028.082,1140890000.0
1028.566,1188910000.0
1028.6,1191850000.0
1028.668,1197710000.0
1028.803,1209420000.0
1029.073,1232090000.0
1029.614,1271400000.0
1030.329,1316590000.0
1031.044,1358360000.0
1032.058,1411160000.0
1032.922,1449250000.0
1033.787,1484570000.0
1035.516,1549860000.0
1037.246,1620370000.0
1038.975,1688390000.0
1040.704,1754880000.0
1042.433,1822740000.0
1044.162,1892530000.0
1045.892,1964750000.0
1047.621,2038580000.0
1048.81,2090760000.0
1050.0,2144320000.0
1052.38,2254470000.0
1055.0,2380630000.0
1057.62,2513240000.0
1060.0,2638770000.0
1064.76,2910050000.0
1065.0,2924320000.0
1065.48,2952730000.0
1066.441,3010330000.0
1068.363,3128660000.0
1070.0,3232350000.0
1073.273,3448520000.0
1075.0,3566710000.0
1078.453,3816200000.0
1080.0,3933900000.0
1081.538,4053050000.0
1083.077,4175440000.0
1086.155,4429970000.0
1086.538,4462560000.0
1087.304,4528490000.0
1088.835,4661300000.0
1090.0,4764690000.0
1092.33,4978120000.0
1095.0,5233630000.0
1097.67,5498550000.0
1100.0,5739230000.0
1104.661,6250520000.0
1105.0,6288980000.0
1105.679,6365820000.0
1107.036,6522310000.0
1109.751,6845720000.0
1110.0,6876100000.0
1110.498,6937190000.0
1111.494,7060830000.0
1113.486,7313720000.0
1115.0,7509280000.0
1118.027,7906660000.0
1120.0,8170830000.0
1123.945,8697100000.0
1125.0,8838720000.0
1127.109,9117590000.0
1130.0,9491280000.0
1131.154,9637830000.0
1132.308,9778580000.0
1134.616,10050000000.0
1136.154,10215400000.0
1139.23,10516600000.0
1140.0,10580000000.0
1141.539,10708100000.0
1144.617,10939700000.0
1145.0,10969400000.0
1145.766,11015800000.0
1147.297,11121000000.0
1150.0,11299400000.0
1152.703,11479800000.0
1155.406,11650600000.0
1158.109,11811200000.0
1160.812,11983200000.0
1163.516,12155500000.0
1165.769,12317900000.0
1170.276,12706800000.0
1174.783,13183800000.0
1179.29,13767200000.0
1181.538,14100000000.0
1185.628,14787700000.0
1189.718,15544700000.0
1191.767,15919800000.0
1193.816,16276400000.0
1195.866,16611100000.0
1197.915,16932000000.0
1199.964,17249000000.0
1202.014,17552100000.0
1204.063,17825400000.0
1206.113,18002300000.0
1208.162,18046200000.0
1209.187,17996100000.0
1210.211,17869000000.0
1210.261,17863200000.0
1210.311,17857500000.0
1210.361,17851800000.0
1210.411,17846200000.0
1210.461,17840900000.0
1210.511,17833800000.0
1210.561,17820500000.0
1210.611,17807700000.0
1210.661,17795400000.0
1210.712,17783600000.0
1210.762,17772400000.0
1210.812,17761600000.0
1210.862,17751200000.0
1210.912,17741400000.0
1210.962,17731900000.0
1211.012,17720700000.0
1211.062,17705600000.0
1211.112,17691200000.0
1211.162,17677100000.0
1211.212,17663700000.0
1211.262,17651000000.0
1211.312,17638500000.0
1211.362,17626500000.0
1211.412,17615000000.0
1211.462,17604000000.0
1211.512,17593200000.0
1211.562,17582200000.0
1211.612,17571500000.0
1211.662,17561100000.0
1211.713,17551200000.0
1211.763,17541800000.0
1211.813,17532700000.0
1211.863,17524100000.0
1211.913,17515700000.0
1211.963,17507600000.0
1212.013,17497100000.0
1212.063,17479000000.0
1212.113,17461600000.0
1212.163,17446800000.0
1212.213,17433900000.0
1212.261,17421900000.0
1212.357,17399400000.0
1212.549,17356200000.0
1212.933,17268600000.0
1213.7,17154400000.0
1214.31,17122300000.0
1214.822,17148000000.0
1215.335,17038600000.0
1215.399,16944300000.0
1215.463,16803900000.0
1215.513,16690300000.0
1215.563,16637800000.0
1215.591,16639400000.0
1215.623,16646700000.0
1215.655,16654000000.0
1215.663,16655800000.0
1215.67,16657500000.0
1215.679,16659500000.0
1215.687,16661300000.0
1215.719,16668700000.0
1215.751,16676100000.0
1215.815,16739500000.0
1215.879,16930000000.0
1215.943,17137700000.0
1216.007,17308100000.0
1216.135,17569200000.0
1216.39,17956300000.0
1216.52,18149500000.0
1216.78,18464300000.0
1217.032,18809700000.0
1217.536,19478700000.0
1218.544,20730100000.0
1219.081,21249500000.0
1219.618,21827200000.0
1220.693,22756400000.0
1221.131,23129400000.0
1222.007,23710300000.0
1222.882,24250800000.0
1223.18,24472900000.0
1223.775,24892800000.0
1224.966,25613700000.0
1225.229,25747300000.0
1225.756,25997600000.0
1226.809,26434500000.0
1227.279,26618300000.0
1228.219,26998500000.0
1229.328,27468600000.0
1231.378,28378700000.0
1233.427,29294300000.0
1235.476,30203100000.0
1237.526,31109400000.0
1239.575,32000500000.0
1241.625,32903500000.0
1245.725,34796100000.0
1249.825,36797600000.0
1250.812,37272800000.0
1252.786,38292300000.0
1256.733,40370800000.0
1260.0,42236600000.0
1263.267,44278400000.0
1265.0,45367600000.0
1268.466,47504500000.0
1270.0,48521500000.0
1273.068,50588300000.0
1275.0,51882100000.0
1278.863,54745900000.0
1280.0,55589000000.0
1282.273,57263500000.0
1285.0,59192400000.0
1287.727,61219300000.0
1290.0,62968300000.0
1294.547,66717900000.0
1295.0,67112100000.0
1295.906,67907800000.0
1297.719,69499900000.0
1300.0,71501700000.0
1305.0,75850400000.0
1310.0,80417700000.0
1315.0,85240800000.0
1320.0,90317500000.0
1325.0,95676000000.0
1330.0,101352000000.0
1335.0,107311000000.0
1340.0,113494000000.0
1345.0,119912000000.0
1350.0,126645000000.0
1355.0,133766000000.0
1360.0,141145000000.0
1365.0,148874000000.0
1370.0,157004000000.0
1374.231,164102000000.0
1378.462,171437000000.0
1379.231,172802000000.0
1380.0,174177000000.0
1381.538,176957000000.0
1384.614,182632000000.0
1385.0,183353000000.0
1385.771,184804000000.0
1387.314,187731000000.0
1390.0,192915000000.0
1395.0,202888000000.0
1400.0,213291000000.0
1405.0,224160000000.0
1410.0,235542000000.0
1415.0,247396000000.0
1420.0,259672000000.0
1425.0,272447000000.0
1430.0,285749000000.0
1435.0,299473000000.0
1440.0,313560000000.0
1445.0,328096000000.0
1450.0,343146000000.0
1455.0,358712000000.0
1460.0,374858000000.0
1465.0,391591000000.0
1470.0,409182000000.0
1473.462,421863000000.0
1476.923,434959000000.0
1478.462,440925000000.0
1480.0,446987000000.0
1483.076,459407000000.0
1485.0,467379000000.0
1488.848,483741000000.0
1490.0,488728000000.0
1492.304,498790000000.0
1495.0,510655000000.0
1500.0,532833000000.0
1505.0,555428000000.0
1510.0,579047000000.0
1515.0,604139000000.0
1520.0,630397000000.0
1525.0,656638000000.0
1530.0,681636000000.0
1535.0,705349000000.0
1540.0,729024000000.0
1545.0,754103000000.0
1550.0,781329000000.0
1555.0,810658000000.0
1560.0,841340000000.0
1565.0,872263000000.0
1570.0,902607000000.0
1572.692,918688000000.0
1575.385,934693000000.0
1577.692,948491000000.0
1580.0,962479000000.0
1584.616,991406000000.0
1585.0,993901000000.0
1585.768,998910000000.0
1587.304,1009160000000.0
1590.0,1027610000000.0
1595.0,1064100000000.0
1600.0,1103850000000.0
1605.0,1147130000000.0
1610.0,1194410000000.0
1615.0,1245930000000.0
1620.0,1301960000000.0
1625.0,1362700000000.0
1630.0,1428480000000.0
1635.0,1499390000000.0
1640.0,1575560000000.0
1645.0,1657230000000.0
1650.0,1744550000000.0
1655.0,1837580000000.0
1660.0,1937690000000.0
1665.0,2045640000000.0
1670.0,2162920000000.0
1671.923,2210560000000.0
1673.846,2260830000000.0
1676.923,2348610000000.0
1680.0,2445620000000.0
1685.0,2628770000000.0
1687.5,2737120000000.0
1690.0,2864120000000.0
1692.5,3003140000000.0
1695.0,3173300000000.0
1697.5,3361510000000.0
1700.0,3599850000000.0
1702.5,3860440000000.0
1705.0,4182300000000.0
1707.5,4543650000000.0
1710.0,4988060000000.0
1712.5,5490570000000.0
1715.0,6096270000000.0
1716.25,6421000000000.0
1717.5,6754950000000.0
1718.75,7132670000000.0
1720.0,7559420000000.0
1722.5,8420840000000.0
1723.75,8908100000000.0
1725.0,9455490000000.0
1727.5,10557900000000.0
1728.75,11169400000000.0
1730.0,11846500000000.0
1732.5,13184800000000.0
1733.75,13919100000000.0
1735.0,14727300000000.0
1737.5,16322900000000.0
1738.75,17188100000000.0
1740.0,18129300000000.0
1742.5,19961200000000.0
1745.0,22011400000000.0
1747.5,24059800000000.0
1750.0,26310900000000.0
1752.5,28541300000000.0
1757.5,33269500000000.0
1761.154,36839400000000.0
1768.462,43865300000000.0
1772.308,47555700000000.0
1780.0,54730600000000.0
1787.691,61442700000000.0
1795.383,67828000000000.0
1803.075,73711200000000.0
1810.766,79326100000000.0
1821.539,86651000000000.0
1832.312,93567400000000.0
1843.084,100209000000000.0
1853.857,106672000000000.0
1864.63,113038000000000.0
1870.769,116642000000000.0
1883.048,123808000000000.0
1895.326,130977000000000.0
1907.605,138129000000000.0
1919.883,145315000000000.0
1920.0,145384000000000.0
1920.5,145678000000000.0
1921.5,146262000000000.0
1923.5,147433000000000.0
1927.5,149783000000000.0
1935.5,154497000000000.0
1951.5,163943000000000.0
1967.5,173404000000000.0
1969.231,174429000000000.0
1972.693,176475000000000.0
1979.617,180574000000000.0
1993.464,188758000000000.0
2007.312,196860000000000.0
2018.462,203428000000000.0
2029.612,209940000000000.0
2040.762,216527000000000.0
2051.912,223107000000000.0
2063.062,229773000000000.0
2067.692,232546000000000.0
2076.952,238131000000000.0
2095.471,249368000000000.0
2113.991,260610000000000.0
2116.923,262399000000000.0
2122.788,265935000000000.0
2134.517,272908000000000.0
2146.247,279789000000000.0
2157.976,286560000000000.0
2166.154,291122000000000.0
2182.51,300044000000000.0
2198.865,308565000000000.0
2215.22,316860000000000.0
2215.385,316943000000000.0
2215.885,317196000000000.0
2216.885,317701000000000.0
2218.885,318711000000000.0
2222.885,320728000000000.0
2230.885,324760000000000.0
2246.885,332882000000000.0
2262.885,341117000000000.0
2264.615,342025000000000.0
2268.075,343838000000000.0
2274.995,347465000000000.0
2288.835,354876000000000.0
2302.675,362455000000000.0
2313.846,368839000000000.0
2325.017,375367000000000.0
2336.189,382130000000000.0
2347.36,389104000000000.0
2358.531,396225000000000.0
2363.077,399161000000000.0
2372.168,405093000000000.0
2390.349,416930000000000.0
2408.531,428543000000000.0
2412.307,430903000000000.0
2419.859,435618000000000.0
2434.962,444514000000000.0
2450.066,453003000000000.0
2461.538,459234000000000.0
2473.01,465061000000000.0
2484.483,470750000000000.0
2495.955,476195000000000.0
2507.428,481458000000000.0
2510.769,482956000000000.0
2517.452,485933000000000.0
2530.817,491689000000000.0
2544.182,497307000000000.0
2557.547,502765000000000.0
2560.0,503760000000000.0
2564.905,505704000000000.0
2574.716,509561000000000.0
2594.337,517111000000000.0
2613.958,524452000000000.0
2633.579,531608000000000.0
2653.2,538591000000000.0
2658.461,540437000000000.0
2668.982,544066000000000.0
2679.504,547653000000000.0
2690.025,551249000000000.0
2700.547,554811000000000.0
2711.068,558245000000000.0
2721.59,561706000000000.0
2732.111,565057000000000.0
2742.633,568370000000000.0
2753.154,571642000000000.0
2756.923,572804000000000.0
2764.461,575098000000000.0
2779.536,579624000000000.0
2794.611,584063000000000.0
2809.686,588419000000000.0
2824.761,592692000000000.0
2839.837,596893000000000.0
2854.912,601008000000000.0
2855.385,601136000000000.0
2856.331,601390000000000.0
2858.224,601896000000000.0
2862.009,602905000000000.0
2869.579,604909000000000.0
2884.72,608850000000000.0
2899.861,612708000000000.0
2915.001,616479000000000.0
2930.142,620165000000000.0
2945.1,623725000000000.0
2953.846,625768000000000.0
2971.338,629737000000000.0
2988.829,633595000000000.0
3006.321,637343000000000.0
3023.813,640981000000000.0
3041.304,644508000000000.0
3052.308,646671000000000.0
3063.312,648779000000000.0
3074.315,650846000000000.0
3085.319,652869000000000.0
3096.323,654849000000000.0
3107.326,656787000000000.0
3118.33,658684000000000.0
3129.334,660538000000000.0
3140.337,662351000000000.0
3150.769,664033000000000.0
