Wavelength,Flux
900.0,3224500000.0
903.442,3477800000.0
904.998,3597990000.0
906.554,3721840000.0
908.11,3849440000.0
909.667,3981000000.0
910.703,4070720000.0
911.74,4162310000.0
911.84,4171240000.0
912.0,4185560000.0
912.31,4213430000.0
912.779,4255910000.0
913.717,4342000000.0
914.335,4412140000.0
915.329,4493390000.0
915.824,4540860000.0
915.892,4547430000.0
916.028,4591050000.0
916.164,4641450000.0
916.297,4588640000.0
916.429,4599480000.0
916.495,4605940000.0
916.561,4614740000.0
916.628,4659890000.0
916.694,4746140000.0
916.76,4815620000.0
916.826,4839100000.0
916.892,4806920000.0
916.958,4728720000.0
917.025,4667750000.0
917.091,4664360000.0
917.157,4670890000.0
917.181,4673270000.0
917.231,4678210000.0
917.331,4695530000.0
917.39,4763280000.0
917.448,4884080000.0
917.565,5108800000.0
917.623,5169010000.0
917.682,5186570000.0
917.74,5158100000.0
917.799,5078570000.0
917.857,4959320000.0
917.916,4835100000.0
917.974,4763630000.0
918.033,4758110000.0
918.129,4767780000.0
918.225,4777480000.0
918.322,4844180000.0
918.418,5108500000.0
918.514,5410160000.0
918.611,5634530000.0
918.707,5760480000.0
918.755,5783580000.0
918.803,5778410000.0
918.851,5743120000.0
918.9,5674400000.0
918.948,5572560000.0
918.996,5437610000.0
919.004,5411500000.0
919.054,5247630000.0
919.154,4944810000.0
919.204,4884760000.0
919.254,4882130000.0
919.351,4892100000.0
919.448,4902100000.0
919.545,4981570000.0
919.642,5326230000.0
919.739,5755450000.0
919.836,6136100000.0
919.933,6425400000.0
920.03,6625610000.0
920.127,6740050000.0
920.224,6768750000.0
920.321,6701040000.0
920.419,6517060000.0
920.516,6203260000.0
920.56,6017480000.0
920.61,5781220000.0
920.71,5316940000.0
920.76,5141730000.0
920.81,5058340000.0
920.86,5049560000.0
920.91,5054840000.0
920.96,5060130000.0
920.963,5060460000.0
921.013,5065760000.0
921.113,5088050000.0
921.163,5178560000.0
921.213,5367460000.0
921.263,5616840000.0
921.313,5900710000.0
921.363,6197450000.0
921.463,6748850000.0
921.513,6994830000.0
921.563,7214520000.0
921.663,7588720000.0
921.713,7743280000.0
921.763,7877980000.0
921.863,8091090000.0
921.963,8238960000.0
922.063,8323790000.0
922.117,8342910000.0
922.226,8318050000.0
922.28,8270430000.0
922.334,8195490000.0
922.388,8090670000.0
922.443,7952310000.0
922.506,7742720000.0
922.569,7479600000.0
922.633,7167050000.0
922.696,6803230000.0
922.76,6407980000.0
922.886,5643740000.0
922.895,5600050000.0
922.945,5395190000.0
922.992,5299890000.0
923.042,5285260000.0
923.089,5290320000.0
923.114,5293090000.0
923.138,5295730000.0
923.144,5296390000.0
923.15,5297060000.0
923.156,5297720000.0
923.162,5298380000.0
923.187,5301140000.0
923.211,5303800000.0
923.261,5309510000.0
923.308,5334900000.0
923.355,5442150000.0
923.402,5648260000.0
923.405,5663990000.0
923.455,5956430000.0
923.505,6298080000.0
923.555,6660650000.0
923.655,7382700000.0
923.724,7850480000.0
923.794,8280930000.0
923.864,8663150000.0
923.933,9000270000.0
924.003,9301040000.0
924.072,9562730000.0
924.183,9914570000.0
924.294,10198300000.0
924.405,10423800000.0
924.436,10478000000.0
924.498,10574800000.0
924.623,10723300000.0
924.688,10776600000.0
924.818,10830600000.0
924.939,10810500000.0
925.06,10708900000.0
925.182,10508700000.0
925.189,10492800000.0
925.239,10373500000.0
925.339,10063000000.0
925.389,9869530000.0
925.439,9648710000.0
925.489,9394710000.0
925.539,9112610000.0
925.579,8866940000.0
925.659,8315580000.0
925.739,7705710000.0
925.819,7063990000.0
925.895,6479550000.0
925.97,5991480000.0
926.018,5765660000.0
926.067,5651580000.0
926.116,5633610000.0
926.164,5639110000.0
926.189,5642010000.0
926.214,5644940000.0
926.22,5645630000.0
926.226,5646330000.0
926.232,5647040000.0
926.238,5647740000.0
926.263,5650660000.0
926.287,5653460000.0
926.337,5659480000.0
926.385,5688900000.0
926.433,5813700000.0
926.481,6050980000.0
926.532,6384720000.0
926.582,6775240000.0
926.632,7197490000.0
926.732,8079110000.0
926.873,9275460000.0
926.943,9819440000.0
927.014,10320000000.0
927.085,10779600000.0
927.155,11199100000.0
927.226,11585200000.0
927.263,11776900000.0
927.338,12130100000.0
927.487,12743700000.0
927.636,13245000000.0
927.785,13660600000.0
927.875,13876800000.0
928.055,14243200000.0
928.235,14527900000.0
928.414,14739900000.0
928.487,14805200000.0
928.632,14899100000.0
928.777,14938900000.0
928.922,14916000000.0
929.097,14787300000.0
929.272,14515900000.0
929.359,14313600000.0
929.446,14061300000.0
929.533,13753500000.0
929.621,13383400000.0
929.706,12953800000.0
929.791,12455900000.0
929.877,11888600000.0
929.962,11257800000.0
930.047,10557700000.0
930.098,10107100000.0
930.199,9158150000.0
930.301,8174500000.0
930.348,7721550000.0
930.396,7293430000.0
930.444,6903150000.0
930.491,6578430000.0
930.539,6332890000.0
930.586,6205790000.0
930.589,6201430000.0
930.639,6182960000.0
930.687,6188940000.0
930.711,6191990000.0
930.736,6195160000.0
930.742,6195920000.0
930.748,6196670000.0
930.754,6197440000.0
930.76,6198200000.0
930.785,6201360000.0
930.809,6204420000.0
930.859,6210910000.0
930.907,6241900000.0
930.955,6376260000.0
931.003,6635100000.0
931.005,6648710000.0
931.055,7011720000.0
931.105,7448250000.0
931.155,7926870000.0
931.255,8956820000.0
931.355,10006500000.0
931.398,10445700000.0
931.484,11299800000.0
931.57,12105100000.0
931.657,12868100000.0
931.79,13954300000.0
931.923,14914800000.0
932.057,15761700000.0
932.19,16497800000.0
932.324,17140400000.0
932.457,17702700000.0
932.724,18646500000.0
932.991,19402100000.0
933.033,19507500000.0
933.117,19707800000.0
933.286,20072200000.0
933.624,20688500000.0
933.962,21179400000.0
934.276,21532100000.0
934.59,21779600000.0
934.904,21900700000.0
935.209,21859400000.0
935.514,21605400000.0
935.564,21536900000.0
935.664,21373700000.0
935.864,20932300000.0
935.964,20638300000.0
936.064,20286800000.0
936.164,19874800000.0
936.264,19398700000.0
936.364,18851000000.0
936.464,18233500000.0
936.564,17526200000.0
936.664,16734400000.0
936.753,15953300000.0
936.842,15112200000.0
936.931,14209100000.0
937.021,13260000000.0
937.11,12272500000.0
937.148,11834600000.0
937.224,10949000000.0
937.377,9178610000.0
937.418,8724340000.0
937.46,8295440000.0
937.502,7911630000.0
937.544,7590020000.0
937.586,7335680000.0
937.628,7183250000.0
937.642,7155980000.0
937.692,7134000000.0
937.741,7140950000.0
937.766,7144540000.0
937.791,7148140000.0
937.797,7149000000.0
937.803,7149850000.0
937.809,7150730000.0
937.815,7151590000.0
937.84,7155180000.0
937.865,7158770000.0
937.915,7166100000.0
937.964,7202580000.0
938.013,7362920000.0
938.062,7669830000.0
938.111,8074160000.0
938.16,8561560000.0
938.209,9100210000.0
938.258,9680630000.0
938.356,10891800000.0
938.458,12167400000.0
938.662,14636100000.0
938.853,16798900000.0
938.949,17807000000.0
939.044,18746400000.0
939.235,20444300000.0
939.427,21932100000.0
939.618,23204500000.0
939.809,24306600000.0
940.0,25264100000.0
940.191,26091900000.0
940.434,27004200000.0
940.677,27796500000.0
941.163,29124200000.0
941.648,30181300000.0
942.015,30867100000.0
942.748,32033000000.0
942.894,32239000000.0
943.185,32656900000.0
943.767,33350800000.0
943.773,33356900000.0
943.823,33410900000.0
943.923,33516100000.0
944.123,33715100000.0
944.323,33897800000.0
944.523,34061700000.0
944.625,34137600000.0
944.829,34272400000.0
945.237,34462200000.0
945.478,34513100000.0
945.96,34431400000.0
946.201,34271400000.0
946.442,34008100000.0
946.683,33615800000.0
946.925,33063000000.0
947.079,32609200000.0
947.388,31420300000.0
947.542,30660600000.0
947.697,29780200000.0
947.851,28750100000.0
948.005,27568200000.0
948.16,26224700000.0
948.314,24699200000.0
948.469,23009100000.0
948.623,21139000000.0
948.68,20402400000.0
948.794,18884200000.0
949.021,15690900000.0
949.08,14833400000.0
949.198,13108900000.0
949.257,12262400000.0
949.316,11442400000.0
949.375,10684600000.0
949.435,10011300000.0
949.48,9590040000.0
949.53,9235040000.0
949.58,9062360000.0
949.63,9039090000.0
949.68,9047910000.0
949.705,9052330000.0
949.73,9056750000.0
949.737,9057990000.0
949.743,9059050000.0
949.749,9060110000.0
949.755,9061180000.0
949.781,9065780000.0
949.806,9070220000.0
949.856,9079100000.0
949.906,9120260000.0
949.956,9311740000.0
950.006,9687650000.0
950.056,10182200000.0
950.106,10779000000.0
950.156,11442000000.0
950.206,12157900000.0
950.306,13666400000.0
950.406,15214100000.0
950.456,15992500000.0
950.556,17523800000.0
950.756,20539000000.0
950.806,21270800000.0
950.906,22701700000.0
951.106,25372500000.0
951.307,27804300000.0
951.507,29979700000.0
951.707,31928100000.0
951.907,33651000000.0
952.107,35195800000.0
952.307,36570700000.0
952.407,37201500000.0
952.606,38357100000.0
953.004,40342900000.0
953.402,41967700000.0
953.8,43330100000.0
954.008,43969200000.0
954.424,45132600000.0
955.257,47100200000.0
955.609,47835100000.0
956.313,49230800000.0
957.211,50829300000.0
958.812,53455200000.0
960.413,55948500000.0
960.776,56549000000.0
961.14,57100800000.0
961.376,57455300000.0
961.611,57808100000.0
962.081,58513300000.0
963.021,59925200000.0
963.251,60270600000.0
963.71,60962000000.0
964.629,62347200000.0
964.89,62741000000.0
965.412,63521600000.0
966.456,65072500000.0
966.53,65182200000.0
966.678,65401300000.0
966.975,65835200000.0
967.567,66692900000.0
968.169,67536000000.0
969.372,69083700000.0
969.809,69585500000.0
970.683,70472100000.0
971.065,70734400000.0
971.448,70277400000.0
971.653,69148000000.0
971.858,68114300000.0
971.908,67879700000.0
972.008,67383400000.0
972.108,66432800000.0
972.208,65573700000.0
972.268,65094000000.0
972.37,64335300000.0
972.473,63635000000.0
972.499,63467500000.0
972.524,63309500000.0
972.531,63265400000.0
972.537,63228000000.0
972.543,63190500000.0
972.55,63147400000.0
972.575,62994400000.0
972.601,62836100000.0
972.653,62526300000.0
972.703,62408100000.0
972.803,62232100000.0
972.806,62226800000.0
972.856,62141000000.0
972.956,61973700000.0
973.156,61654800000.0
973.216,61563000000.0
973.336,61459700000.0
973.456,61851000000.0
973.576,62250000000.0
973.626,62418600000.0
973.726,62759800000.0
973.926,63460300000.0
974.326,65302400000.0
974.726,67354300000.0
975.265,70081600000.0
975.804,72482000000.0
976.344,74551800000.0
976.905,76482400000.0
978.028,80459700000.0
978.544,82061200000.0
979.576,85065200000.0
980.184,86871800000.0
981.399,89928400000.0
981.823,90810300000.0
982.67,92559100000.0
983.463,94167800000.0
985.048,97462000000.0
985.102,97573000000.0
985.209,97795500000.0
985.423,98242000000.0
985.851,99128100000.0
986.708,100927000000.0
986.742,100999000000.0
986.81,101144000000.0
986.947,101433000000.0
987.221,102013000000.0
987.767,103156000000.0
988.381,104486000000.0
989.608,107110000000.0
990.021,107999000000.0
990.847,109735000000.0
991.66,111492000000.0
993.287,115327000000.0
993.3,115361000000.0
993.35,115484000000.0
993.45,115731000000.0
993.65,116227000000.0
993.85,116724000000.0
994.05,117225000000.0
994.25,117727000000.0
994.45,118220000000.0
994.65,118705000000.0
994.85,119192000000.0
995.05,119677000000.0
995.25,120148000000.0
995.45,120620000000.0
995.65,121094000000.0
995.85,121573000000.0
996.05,122056000000.0
996.25,122541000000.0
996.45,123031000000.0
996.65,123539000000.0
997.05,124562000000.0
997.849,126690000000.0
999.448,130964000000.0
1000.0,132540000000.0
1001.103,135395000000.0
1001.912,137486000000.0
1003.53,141687000000.0
1003.824,142448000000.0
1004.412,143969000000.0
1005.553,146908000000.0
1007.282,151275000000.0
1009.011,155412000000.0
1010.74,159075000000.0
1012.469,161954000000.0
1014.199,163707000000.0
1015.063,163993000000.0
1015.928,163746000000.0
1016.792,162869000000.0
1017.657,161302000000.0
1018.521,158996000000.0
1019.386,155665000000.0
1020.25,151189000000.0
1021.115,145315000000.0
1021.547,141685000000.0
1021.979,137361000000.0
1022.412,131966000000.0
1022.844,125229000000.0
1023.276,116909000000.0
1023.708,106508000000.0
1023.925,100654000000.0
1024.141,93369600000.0
1024.357,85846100000.0
1024.573,77906900000.0
1024.624,75827100000.0
1024.674,73817000000.0
1024.724,71820500000.0
1024.774,69807800000.0
1024.824,67773100000.0
1024.874,65730500000.0
1024.924,63640200000.0
1024.974,61514200000.0
1025.006,60167100000.0
1025.069,57470700000.0
1025.132,54575800000.0
1025.196,51545200000.0
1025.322,45173400000.0
1025.438,39633300000.0
1025.492,37546700000.0
1025.546,36047200000.0
1025.596,35359000000.0
1025.646,35259000000.0
1025.654,35262800000.0
1025.681,35278300000.0
1025.708,35294000000.0
1025.715,35298000000.0
1025.72,35300900000.0
1025.722,35302000000.0
1025.729,35306100000.0
1025.736,35310100000.0
1025.763,35325700000.0
1025.79,35341400000.0
1025.844,35407800000.0
1025.871,35579700000.0
1025.898,35945000000.0
1025.925,36522700000.0
1025.952,37282000000.0
1025.979,38226000000.0
1026.005,39290300000.0
1026.056,41615900000.0
1026.106,44117300000.0
1026.156,46766400000.0
1026.206,49415200000.0
1026.256,52074800000.0
1026.306,54652600000.0
1026.356,57145000000.0
1026.406,59548300000.0
1026.438,61007200000.0
1026.501,63800600000.0
1026.628,69415700000.0
1026.87,79744900000.0
1027.112,89475700000.0
1027.355,98538200000.0
1027.597,107257000000.0
1027.839,114631000000.0
1028.082,121721000000.0
1028.324,127925000000.0
1028.566,133957000000.0
1028.6,134670000000.0
1028.668,136095000000.0
1028.803,138935000000.0
1029.073,144402000000.0
1029.344,149082000000.0
1029.614,153504000000.0
1030.155,161410000000.0
1030.329,163730000000.0
1030.676,168416000000.0
1031.37,178022000000.0
1032.058,186844000000.0
1032.745,194502000000.0
1033.433,201542000000.0
1033.787,205032000000.0
1034.495,210868000000.0
1035.203,215971000000.0
1035.516,218710000000.0
1036.142,225013000000.0
1036.694,231475000000.0
1037.246,238625000000.0
1038.35,251328000000.0
1038.975,257841000000.0
1039.6,263341000000.0
1040.225,268136000000.0
1040.704,271833000000.0
1041.662,279213000000.0
1042.433,284691000000.0
1043.975,295418000000.0
1044.162,296732000000.0
1044.536,299367000000.0
1045.284,304713000000.0
1045.892,309183000000.0
1047.108,317924000000.0
1047.621,321392000000.0
1048.647,328468000000.0
1048.81,329652000000.0
1049.135,332028000000.0
1049.786,336802000000.0
1050.0,338353000000.0
1050.427,341296000000.0
1051.282,346951000000.0
1052.991,358147000000.0
1055.0,371384000000.0
1059.019,397372000000.0
1060.0,405217000000.0
1061.963,423572000000.0
1063.926,444906000000.0
1065.0,455847000000.0
1067.148,476598000000.0
1070.0,501017000000.0
1072.852,524509000000.0
1075.0,541312000000.0
1077.148,559960000000.0
1079.297,587450000000.0
1080.0,597959000000.0
1081.406,619197000000.0
1081.538,621167000000.0
1081.801,625051000000.0
1082.328,632689000000.0
1083.077,643228000000.0
1084.575,663250000000.0
1086.538,688776000000.0
1090.0,734624000000.0
1093.462,782137000000.0
1095.0,803974000000.0
1098.076,849478000000.0
1100.0,878924000000.0
1103.848,939863000000.0
1105.0,958836000000.0
1107.304,997819000000.0
1110.0,1044210000000.0
1112.696,1091680000000.0
1115.0,1133630000000.0
1119.607,1219130000000.0
1120.0,1226290000000.0
1120.785,1240690000000.0
1122.355,1268620000000.0
1125.0,1313900000000.0
1127.645,1354700000000.0
1130.0,1385890000000.0
1131.154,1399590000000.0
1132.308,1411040000000.0
1134.616,1428890000000.0
1136.154,1434580000000.0
1137.692,1435570000000.0
1139.23,1431280000000.0
1140.0,1425770000000.0
1141.539,1413790000000.0
1144.617,1378720000000.0
1145.0,1374390000000.0
1145.766,1361530000000.0
1147.297,1339230000000.0
1150.0,1297190000000.0
1152.703,1257460000000.0
1155.406,1218280000000.0
1158.109,1182410000000.0
1160.812,1154260000000.0
1163.516,1130330000000.0
1165.769,1116020000000.0
1168.022,1106280000000.0
1172.529,1097580000000.0
1177.036,1098530000000.0
1181.538,1110460000000.0
1183.583,1120590000000.0
1185.628,1133230000000.0
1189.718,1161750000000.0
1191.767,1173230000000.0
1193.816,1180100000000.0
1195.866,1181320000000.0
1197.915,1177650000000.0
1199.964,1169950000000.0
1202.014,1157970000000.0
1204.063,1136910000000.0
1205.087,1118730000000.0
1206.112,1095460000000.0
1206.113,1095430000000.0
1206.163,1094070000000.0
1206.213,1092720000000.0
1206.263,1091390000000.0
1206.313,1090080000000.0
1206.363,1088790000000.0
1206.413,1087510000000.0
1206.463,1086260000000.0
1206.513,1084880000000.0
1206.563,1083140000000.0
1206.614,1081430000000.0
1206.664,1079750000000.0
1206.714,1078090000000.0
1206.764,1076450000000.0
1206.814,1074830000000.0
1206.864,1073240000000.0
1206.914,1071660000000.0
1206.964,1070090000000.0
1207.014,1068380000000.0
1207.064,1066310000000.0
1207.114,1064280000000.0
1207.164,1062280000000.0
1207.214,1060280000000.0
1207.264,1058310000000.0
1207.314,1056360000000.0
1207.364,1054450000000.0
1207.414,1052560000000.0
1207.464,1050710000000.0
1207.514,1048760000000.0
1207.564,1046540000000.0
1207.615,1044370000000.0
1207.665,1042230000000.0
1207.715,1040120000000.0
1207.765,1038060000000.0
1207.815,1036030000000.0
1207.865,1034030000000.0
1207.915,1032060000000.0
1207.965,1030100000000.0
1208.015,1028070000000.0
1208.065,1025850000000.0
1208.115,1023680000000.0
1208.162,1021660000000.0
1208.256,1017730000000.0
1208.444,1010210000000.0
1208.82,992265000000.0
1209.572,949552000000.0
1210.211,911852000000.0
1210.85,871480000000.0
1211.489,823762000000.0
1212.261,770577000000.0
1213.033,718444000000.0
1213.671,682000000000.0
1214.31,647110000000.0
1214.566,631058000000.0
1214.822,609040000000.0
1214.95,591511000000.0
1215.078,567986000000.0
1215.206,535747000000.0
1215.334,496422000000.0
1215.385,481268000000.0
1215.435,468414000000.0
1215.463,462910000000.0
1215.491,458978000000.0
1215.519,456549000000.0
1215.575,455589000000.0
1215.591,455662000000.0
1215.623,455823000000.0
1215.655,455983000000.0
1215.663,456023000000.0
1215.67,456059000000.0
1215.679,456103000000.0
1215.687,456144000000.0
1215.719,456305000000.0
1215.751,456466000000.0
1215.815,457734000000.0
1215.847,460566000000.0
1215.879,465547000000.0
1215.929,477301000000.0
1215.979,492517000000.0
1216.007,502036000000.0
1216.063,522055000000.0
1216.174,562163000000.0
1216.285,599230000000.0
1216.397,632904000000.0
1216.52,666085000000.0
1216.643,694346000000.0
1216.767,720245000000.0
1217.014,770513000000.0
1217.032,773799000000.0
1217.082,782927000000.0
1217.132,792034000000.0
1217.182,801192000000.0
1217.232,810522000000.0
1217.282,820106000000.0
1217.332,829964000000.0
1217.382,840004000000.0
1217.432,850367000000.0
1217.482,861176000000.0
1217.532,870380000000.0
1217.583,878666000000.0
1217.633,887130000000.0
1217.683,895797000000.0
1217.733,904704000000.0
1217.783,913823000000.0
1217.833,923116000000.0
1217.883,932715000000.0
1217.933,942676000000.0
1217.983,953045000000.0
1218.033,962020000000.0
1218.083,970214000000.0
1218.133,978619000000.0
1218.183,987161000000.0
1218.233,995980000000.0
1218.283,1005110000000.0
1218.333,1014560000000.0
1218.383,1024390000000.0
1218.433,1034590000000.0
1218.483,1045200000000.0
1218.533,1053420000000.0
1218.583,1060410000000.0
1218.634,1067520000000.0
1218.684,1074780000000.0
1218.734,1082140000000.0
1218.784,1089650000000.0
1218.834,1097290000000.0
1218.884,1105070000000.0
1218.934,1113070000000.0
1218.984,1121300000000.0
1219.034,1128940000000.0
1219.081,1135930000000.0
1219.175,1150380000000.0
1219.364,1181300000000.0
1219.741,1239390000000.0
1220.118,1292000000000.0
1220.495,1333880000000.0
1221.131,1405940000000.0
1221.767,1465930000000.0
1222.404,1502790000000.0
1222.792,1533970000000.0
1223.18,1566730000000.0
1223.956,1625190000000.0
1224.593,1663650000000.0
1225.229,1694660000000.0
1226.501,1739880000000.0
1227.279,1761840000000.0
1228.834,1806380000000.0
1229.328,1820220000000.0
1230.316,1849720000000.0
1231.378,1880930000000.0
1233.427,1943110000000.0
1235.476,2002080000000.0
1237.526,2056530000000.0
1239.575,2106200000000.0
1241.625,2154820000000.0
1245.725,2256080000000.0
1249.825,2362290000000.0
1250.812,2385960000000.0
1252.786,2439750000000.0
1256.733,2546380000000.0
1260.0,2645500000000.0
1263.267,2758380000000.0
1265.0,2816970000000.0
1268.466,2925050000000.0
1270.0,2978760000000.0
1273.068,3085810000000.0
1275.0,3150240000000.0
1278.863,3303050000000.0
