Wavelength,Flux
900.0,3676620.0
903.442,4069160.0
904.998,4258920.0
906.554,4456780.0
908.11,4663040.0
909.667,4878150.0
910.703,5026290.0
911.74,5178680.0
911.84,5193600.0
912.0,5217550.0
912.31,5264240.0
912.779,5335610.0
913.717,5481000.0
914.335,5578790.0
915.329,5739390.0
915.824,5820950.0
915.892,5832240.0
916.028,5854900.0
916.3,5900430.0
916.429,5922070.0
916.686,5965570.0
917.181,6050010.0
917.448,6096030.0
917.982,6189040.0
918.129,6214880.0
918.423,6266860.0
919.004,6370660.0
919.351,6433490.0
920.045,6560420.0
920.56,6656090.0
920.963,6732620.0
921.769,6884910.0
922.117,6951840.0
922.506,7027380.0
922.895,7104800.0
922.992,7125950.0
923.089,7146610.0
923.114,7151610.0
923.138,7156430.0
923.144,7157620.0
923.15,7158830.0
923.156,7160030.0
923.162,7161230.0
923.187,7166250.0
923.211,7171060.0
923.261,7180980.0
923.308,7189070.0
923.402,7205390.0
923.405,7205940.0
923.455,7215210.0
923.555,7234480.0
923.755,7273920.0
923.794,7281670.0
923.872,7297180.0
924.028,7328370.0
924.183,7359530.0
924.436,7410700.0
924.688,7461790.0
924.939,7512970.0
925.189,7564300.0
925.579,7645440.0
925.97,7733840.0
926.067,7762200.0
926.165,7786930.0
926.189,7792130.0
926.214,7797540.0
926.22,7798840.0
926.226,7800150.0
926.232,7801440.0
926.238,7802740.0
926.263,7808160.0
926.287,7813370.0
926.337,7823930.0
926.385,7830860.0
926.481,7842790.0
926.532,7850840.0
926.632,7869350.0
926.832,7909530.0
926.873,7918050.0
926.955,7935210.0
927.119,7969910.0
927.263,8000600.0
927.551,8062300.0
927.875,8132260.0
928.487,8265990.0
929.097,8401330.0
929.706,8539060.0
930.098,8630900.0
930.491,8748260.0
930.589,8793140.0
930.687,8823890.0
930.711,8829710.0
930.736,8835780.0
930.742,8837240.0
930.748,8838690.0
930.754,8840170.0
930.76,8841620.0
930.785,8847690.0
930.809,8853540.0
930.859,8865290.0
930.907,8870200.0
931.003,8870910.0
931.005,8871000.0
931.055,8873630.0
931.155,8886040.0
931.355,8922910.0
931.398,8931910.0
931.484,8950470.0
931.656,8989170.0
931.79,9019940.0
932.058,9082200.0
932.593,9208720.0
933.033,9314160.0
933.914,9528750.0
934.276,9618240.0
935.001,9799320.0
935.514,9929520.0
936.54,10196500.0
936.753,10254600.0
937.148,10374100.0
937.544,10580700.0
937.642,10655800.0
937.741,10695700.0
937.766,10702900.0
937.791,10710100.0
937.797,10711900.0
937.803,10713600.0
937.809,10715300.0
937.815,10717100.0
937.84,10724300.0
937.865,10731600.0
937.915,10745500.0
937.964,10748900.0
938.062,10728600.0
938.258,10706400.0
938.458,10729600.0
938.853,10818000.0
939.643,11028700.0
940.434,11248600.0
942.015,11702000.0
942.894,11961600.0
943.773,12226200.0
944.625,12488400.0
945.478,12756400.0
947.079,13275400.0
948.68,13847400.0
949.08,14062900.0
949.28,14247800.0
949.48,14526500.0
949.58,14652000.0
949.68,14706500.0
949.705,14716200.0
949.73,14725800.0
949.737,14728500.0
949.743,14730900.0
949.749,14733200.0
949.755,14735500.0
949.781,14745600.0
949.806,14755300.0
949.856,14774100.0
949.906,14778100.0
950.006,14728200.0
950.056,14689800.0
950.156,14618400.0
950.356,14546700.0
950.406,14542300.0
950.506,14544600.0
950.706,14576400.0
950.806,14600100.0
951.005,14656100.0
951.404,14785800.0
952.202,15069600.0
952.407,15144800.0
952.816,15296900.0
953.635,15606200.0
954.008,15749400.0
954.753,16040100.0
955.609,16380500.0
957.211,17036200.0
958.812,17717500.0
960.413,18426300.0
960.776,18590600.0
961.14,18756800.0
961.376,18865300.0
961.611,18974000.0
962.081,19193700.0
963.021,19640000.0
963.251,19750600.0
963.71,19973800.0
964.629,20427800.0
964.89,20558600.0
965.412,20822500.0
966.456,21360100.0
966.53,21398800.0
966.678,21476400.0
966.975,21632800.0
967.567,21949300.0
968.169,22275000.0
969.372,22941000.0
969.809,23187400.0
970.683,23687800.0
971.448,24136000.0
971.858,24381000.0
972.268,24629500.0
972.37,24691900.0
972.473,24755000.0
972.499,24770900.0
972.524,24786200.0
972.531,24790600.0
972.537,24794200.0
972.543,24797900.0
972.55,24802200.0
972.575,24817600.0
972.601,24833600.0
972.653,24865600.0
972.703,24896200.0
972.803,24957600.0
972.806,24959400.0
972.856,24990200.0
972.956,25051700.0
973.156,25175200.0
973.216,25212400.0
973.336,25286800.0
973.576,25435100.0
973.626,25466100.0
973.726,25528100.0
973.926,25652700.0
974.326,25903100.0
975.126,26411100.0
975.265,26500700.0
975.544,26680900.0
976.101,27045700.0
976.905,27580800.0
978.512,28683200.0
978.544,28705500.0
978.608,28750100.0
978.735,28839500.0
978.989,29019100.0
979.498,29381300.0
980.184,29876400.0
981.556,30890700.0
981.823,31092000.0
982.357,31498400.0
983.424,32328800.0
983.463,32359200.0
983.54,32420300.0
983.694,32542600.0
984.003,32788600.0
984.62,33285800.0
985.102,33678700.0
986.065,34477500.0
986.742,35048900.0
988.095,36219900.0
988.381,36472400.0
988.953,36982500.0
990.021,37953600.0
991.66,39491200.0
993.3,41096900.0
996.58,44499200.0
996.65,44574800.0
996.79,44726400.0
997.07,45030900.0
997.63,45645800.0
998.75,46899600.0
1000.0,48338600.0
1001.912,50624100.0
1003.824,53016800.0
1005.553,55273800.0
1007.282,57620000.0
1009.011,60059000.0
1010.74,62594600.0
1012.469,65235200.0
1014.199,67986900.0
1015.928,70846600.0
1017.657,73812800.0
1019.386,76881500.0
1021.115,80026100.0
1022.844,83091100.0
1023.709,84374500.0
1024.574,85208800.0
1025.006,86290700.0
1025.222,87796600.0
1025.438,90449400.0
1025.546,91664800.0
1025.654,92229000.0
1025.681,92284900.0
1025.708,92340200.0
1025.715,92354500.0
1025.72,92364800.0
1025.722,92368900.0
1025.729,92383200.0
1025.736,92397500.0
1025.763,92452900.0
1025.79,92508400.0
1025.844,92582900.0
1025.898,92483400.0
1026.005,91776000.0
1026.056,91308400.0
1026.106,90836500.0
1026.156,90387500.0
1026.206,90002700.0
1026.256,89687200.0
1026.306,89452900.0
1026.356,89279400.0
1026.406,89169300.0
1026.438,89121800.0
1026.501,89084500.0
1026.628,89139900.0
1026.87,89697500.0
1027.112,90467000.0
1027.597,92090300.0
1028.566,94869000.0
1028.6,94957100.0
1028.668,95133000.0
1028.803,95482900.0
1029.073,96177000.0
1029.614,97529900.0
1030.329,99286600.0
1031.758,102804000.0
1032.058,103544000.0
1032.658,105028000.0
1033.787,107859000.0
1035.516,112300000.0
1037.246,116921000.0
1038.975,121706000.0
1040.704,126659000.0
1042.433,131792000.0
1044.162,137108000.0
1045.892,142622000.0
1047.621,148333000.0
1048.81,152380000.0
1050.0,156539000.0
1052.38,165186000.0
1055.0,175209000.0
1057.62,185780000.0
1060.0,195881000.0
1064.76,217572000.0
1065.0,218720000.0
1065.48,221033000.0
1066.441,225727000.0
1068.363,235383000.0
1070.0,243895000.0
1073.273,261756000.0
1075.0,271644000.0
1078.453,292450000.0
1080.0,302243000.0
1081.538,312269000.0
1083.077,322598000.0
1086.155,344169000.0
1086.538,346940000.0
1087.304,352517000.0
1088.835,363896000.0
1090.0,372774000.0
1092.33,391115000.0
1095.0,413112000.0
1097.67,436199000.0
1100.0,457282000.0
1104.661,502164000.0
1105.0,505583000.0
1105.679,512472000.0
1107.036,526500000.0
1109.751,555563000.0
1110.0,558298000.0
1110.498,563801000.0
1111.494,574945000.0
1113.486,597790000.0
1115.0,615666000.0
1118.027,652580000.0
1120.0,677433000.0
1123.945,729232000.0
1125.0,743543000.0
1127.109,772619000.0
1130.0,813432000.0
1131.154,830037000.0
1132.308,846672000.0
1134.616,880265000.0
1136.154,902662000.0
1139.23,947279000.0
1140.0,958116000.0
1141.539,979989000.0
1144.617,1022750000.0
1145.0,1028070000.0
1145.766,1038010000.0
1147.297,1058310000.0
1150.0,1093030000.0
1152.703,1126570000.0
1155.406,1158690000.0
1158.109,1190480000.0
1160.812,1225000000.0
1163.516,1264080000.0
1165.769,1302410000.0
1168.022,1347100000.0
1170.276,1397100000.0
1174.783,1510970000.0
1179.29,1637140000.0
1181.538,1702850000.0
1185.628,1825840000.0
1189.718,1954850000.0
1191.767,2023120000.0
1193.816,2094610000.0
1195.866,2169480000.0
1197.915,2247190000.0
1199.964,2327460000.0
1202.014,2410190000.0
1204.063,2495740000.0
1206.113,2585410000.0
1208.162,2678710000.0
1210.211,2773440000.0
1212.261,2867390000.0
1214.31,2959700000.0
1214.822,2982830000.0
1215.335,3006150000.0
1215.463,3012020000.0
1215.591,3017910000.0
1215.623,3019380000.0
1215.655,3020840000.0
1215.663,3021200000.0
1215.67,3021520000.0
1215.679,3021930000.0
1215.687,3022310000.0
1215.719,3023770000.0
1215.751,3025240000.0
1215.815,3028140000.0
1215.879,3031010000.0
1216.007,3036800000.0
1216.263,3048330000.0
1216.52,3059740000.0
1217.032,3081790000.0
1218.056,3121640000.0
1219.081,3155790000.0
1221.131,3213780000.0
1223.18,3283760000.0
1225.229,3359220000.0
1227.279,3456350000.0
1229.328,3557950000.0
1231.378,3660730000.0
1233.427,3767140000.0
1235.476,3877760000.0
1237.526,3992610000.0
1239.575,4111750000.0
1241.625,4234380000.0
1245.725,4488760000.0
1249.825,4756430000.0
1250.812,4823480000.0
1252.786,4958920000.0
1256.733,5240760000.0
1260.0,5483800000.0
1263.267,5737340000.0
1265.0,5876660000.0
1268.466,6165550000.0
1270.0,6297920000.0
1273.068,6571190000.0
1275.0,6748610000.0
1278.863,7120540000.0
1280.0,7233070000.0
1282.273,7462240000.0
1285.0,7741960000.0
1287.727,8032190000.0
1290.0,8282360000.0
1294.547,8809000000.0
1295.0,8863590000.0
1295.906,8973790000.0
1297.719,9196900000.0
1300.0,9482540000.0
1305.0,10126500000.0
1310.0,10808000000.0
1315.0,11530800000.0
1320.0,12296200000.0
1325.0,13107300000.0
1330.0,13968100000.0
1335.0,14878400000.0
1340.0,15835100000.0
1345.0,16839800000.0
1350.0,17901100000.0
1355.0,19026100000.0
1360.0,20205400000.0
1365.0,21449100000.0
1370.0,22762900000.0
1374.231,23921700000.0
1378.462,25128400000.0
1379.231,25353600000.0
1380.0,25580600000.0
1381.538,26040000000.0
1384.614,26980300000.0
1385.0,27100200000.0
1385.771,27341300000.0
1387.314,27828900000.0
1390.0,28694800000.0
1395.0,30370300000.0
1400.0,32129700000.0
1405.0,33978200000.0
1410.0,35923400000.0
1415.0,37963100000.0
1420.0,40093400000.0
1425.0,42324500000.0
1430.0,44661100000.0
1435.0,47093000000.0
1440.0,49615600000.0
1445.0,52241000000.0
1450.0,54978800000.0
1455.0,57830800000.0
1460.0,60807300000.0
1465.0,63911700000.0
1470.0,67181000000.0
1473.462,69543000000.0
1476.923,71986900000.0
1478.462,73101700000.0
1480.0,74234800000.0
1483.076,76557100000.0
1485.0,78048900000.0
1488.848,81118200000.0
1490.0,82057400000.0
1492.304,83958400000.0
1495.0,86213000000.0
1500.0,90466900000.0
1505.0,94844600000.0
1510.0,99434600000.0
1515.0,104305000000.0
1520.0,109416000000.0
1525.0,114597000000.0
1530.0,119666000000.0
1535.0,124620000000.0
1540.0,129641000000.0
1545.0,134950000000.0
1550.0,140664000000.0
1555.0,146768000000.0
1560.0,153159000000.0
1565.0,159678000000.0
1570.0,166209000000.0
1572.692,169729000000.0
1575.385,173270000000.0
1577.692,176346000000.0
1580.0,179473000000.0
1584.616,185931000000.0
1585.0,186485000000.0
1585.768,187598000000.0
1587.304,189855000000.0
1590.0,193925000000.0
1595.0,201884000000.0
1600.0,210426000000.0
1605.0,219618000000.0
1610.0,229526000000.0
1615.0,240258000000.0
1620.0,251919000000.0
1625.0,264520000000.0
1630.0,278067000000.0
1635.0,292477000000.0
1640.0,307556000000.0
1645.0,323150000000.0
1650.0,338986000000.0
1655.0,354931000000.0
1660.0,370909000000.0
1665.0,386886000000.0
1670.0,402818000000.0
1671.923,408941000000.0
1673.846,415094000000.0
1676.923,424989000000.0
1680.0,434926000000.0
1685.0,451211000000.0
1690.0,467694000000.0
1695.0,484326000000.0
1700.0,501190000000.0
1705.0,518285000000.0
1710.0,535653000000.0
1715.0,553478000000.0
1720.0,571554000000.0
1725.0,590145000000.0
1730.0,609475000000.0
1735.0,629236000000.0
1740.0,649858000000.0
1745.0,671096000000.0
1750.0,693249000000.0
1760.0,739591000000.0
1761.154,745125000000.0
1763.462,756321000000.0
1768.078,779268000000.0
1772.308,800853000000.0
1780.767,845355000000.0
1797.686,940811000000.0
1814.604,1044660000000.0
1821.539,1089620000000.0
1835.409,1184220000000.0
1849.278,1285450000000.0
1863.148,1393510000000.0
1870.769,1455920000000.0
1886.011,1587560000000.0
1901.254,1728620000000.0
1916.496,1879340000000.0
1920.0,1915470000000.0
1927.007,1989580000000.0
1941.022,2144830000000.0
1955.037,2309760000000.0
1969.051,2484800000000.0
1969.231,2487120000000.0
1969.731,2493590000000.0
1970.731,2506560000000.0
1972.731,2532630000000.0
1976.731,2585490000000.0
1984.731,2693860000000.0
2000.731,2921350000000.0
2016.731,3163260000000.0
2018.462,3190520000000.0
2021.924,3245460000000.0
2028.849,3357250000000.0
2042.697,3592160000000.0
2056.546,3841110000000.0
2067.692,4052780000000.0
2078.838,4275430000000.0
2089.984,4510270000000.0
2101.13,4758290000000.0
2112.276,5016920000000.0
2116.923,5128970000000.0
2126.218,5357630000000.0
2144.806,5839330000000.0
2163.395,6352190000000.0
2166.154,6428790000000.0
2171.672,6584590000000.0
2182.707,6903230000000.0
2193.742,7221470000000.0
2204.777,7547970000000.0
2215.385,7866540000000.0
2225.993,8195240000000.0
2236.601,8535900000000.0
2247.209,8892110000000.0
2257.817,9262950000000.0
2264.615,9511390000000.0
2278.212,10032000000000.0
2291.808,10599700000000.0
2305.405,11220700000000.0
2313.846,11644200000000.0
2330.728,12614800000000.0
2339.169,13173300000000.0
2347.61,13814700000000.0
2355.343,14464500000000.0
2363.077,15199200000000.0
2370.811,16034700000000.0
2378.544,16977600000000.0
2386.278,18033500000000.0
2394.011,19261700000000.0
2401.745,20690600000000.0
2409.479,22251900000000.0
2412.307,22904100000000.0
2417.963,24346400000000.0
2423.619,25865400000000.0
2429.276,27478700000000.0
2434.932,29337400000000.0
2440.588,31528100000000.0
2446.244,33591800000000.0
2451.901,35962000000000.0
2457.557,38726200000000.0
2461.538,40841500000000.0
2469.5,44882800000000.0
2477.463,49816000000000.0
2485.425,54951700000000.0
2493.388,60507400000000.0
2501.35,67066200000000.0
2510.769,74222000000000.0
2515.479,78349900000000.0
2520.188,82935600000000.0
2524.897,86751600000000.0
2529.607,90778500000000.0
2534.316,95137500000000.0
2539.026,99869100000000.0
2543.735,104080000000000.0
2548.445,108131000000000.0
2557.864,117041000000000.0
2560.0,119228000000000.0
2564.272,122780000000000.0
2568.545,126351000000000.0
2577.09,133978000000000.0
2594.18,147877000000000.0
2611.27,160650000000000.0
2628.359,172252000000000.0
2645.449,182662000000000.0
2658.461,189800000000000.0
2671.473,196091000000000.0
2684.484,204004000000000.0
2690.99,210058000000000.0
2697.496,216355000000000.0
2704.002,220142000000000.0
2710.508,221625000000000.0
2723.52,224623000000000.0
2736.531,227566000000000.0
2749.543,230496000000000.0
2756.923,232152000000000.0
2771.683,235435000000000.0
2786.444,238699000000000.0
2801.204,241943000000000.0
2815.964,245166000000000.0
2830.724,248368000000000.0
2845.485,251547000000000.0
2855.385,253666000000000.0
2875.186,257855000000000.0
2894.987,261997000000000.0
2914.787,266093000000000.0
2934.588,270141000000000.0
2945.1,272270000000000.0
2953.846,274031000000000.0
2971.338,277501000000000.0
2988.829,280929000000000.0
3006.321,284317000000000.0
3023.813,287661000000000.0
3041.304,290963000000000.0
3052.308,293017000000000.0
3063.312,295046000000000.0
3074.315,297057000000000.0
3085.319,299050000000000.0
3096.323,301024000000000.0
3107.326,302981000000000.0
3118.33,304919000000000.0
3129.334,306838000000000.0
3140.337,308739000000000.0
3150.769,310524000000000.0
3161.201,312291000000000.0
3171.632,314042000000000.0
3182.064,315776000000000.0
3187.7,316705000000000.0
3198.972,318548000000000.0
3210.244,320372000000000.0
3221.516,322175000000000.0
3232.788,323958000000000.0
3244.06,325721000000000.0
3249.231,326523000000000.0
3259.573,328113000000000.0
3269.916,329686000000000.0
3280.258,331242000000000.0
3290.6,332781000000000.0
3300.942,334302000000000.0
3311.285,335806000000000.0
3321.627,337292000000000.0
3331.969,338761000000000.0
3342.312,340212000000000.0
3347.692,340960000000000.0
3358.453,342443000000000.0
3369.213,343906000000000.0
3379.974,345351000000000.0
3390.735,346776000000000.0
3401.496,348182000000000.0
3412.256,349570000000000.0
3423.017,350939000000000.0
3433.778,352288000000000.0
3444.539,353618000000000.0
3446.154,353817000000000.0
3449.385,354210000000000.0
3455.847,354993000000000.0
3468.771,356537000000000.0
3481.695,358054000000000.0
3494.618,359543000000000.0
3507.542,361005000000000.0
3520.466,362440000000000.0
3533.39,363848000000000.0
3544.615,365049000000000.0
3555.84,366225000000000.0
3567.065,367380000000000.0
3578.29,368515000000000.0
3589.515,369630000000000.0
3595.868,370252000000000.0
3608.573,371475000000000.0
3621.278,372674000000000.0
3633.983,373846000000000.0
3646.5,374976000000000.0
3647.0,375021000000000.0
3647.12,375032000000000.0
3647.22,373438000000000.0
3647.42,373456000000000.0
3647.619,373474000000000.0
3648.0,373508000000000.0
3648.761,373577000000000.0
3650.284,373715000000000.0
3653.329,373989000000000.0
3659.418,374533000000000.0
3665.508,375071000000000.0
3668.675,375349000000000.0
3675.009,375900000000000.0
3681.342,376444000000000.0
3682.807,376569000000000.0
3685.737,376818000000000.0
3686.832,376911000000000.0
3689.023,377096000000000.0
3690.13,377190000000000.0
3691.554,377309000000000.0
3694.402,377548000000000.0
3696.486,377721000000000.0
3697.152,377776000000000.0
3698.484,377887000000000.0
3701.148,378107000000000.0
3702.843,378247000000000.0
3703.853,378330000000000.0
3705.0,378424000000000.0
3707.294,378611000000000.0
3709.2,378767000000000.0
3711.971,378991000000000.0
3715.556,379280000000000.0
3721.913,379787000000000.0
3721.938,379789000000000.0
3721.988,379793000000000.0
3722.038,379797000000000.0
3722.088,379801000000000.0
3722.138,379805000000000.0
3722.188,379809000000000.0
3722.238,379813000000000.0
3722.288,379817000000000.0
3722.338,379821000000000.0
3722.388,379825000000000.0
3722.438,379829000000000.0
3722.489,379833000000000.0
3722.539,379837000000000.0
3722.589,379841000000000.0
3722.639,379845000000000.0
3722.689,379849000000000.0
3722.739,379853000000000.0
3722.789,379857000000000.0
3722.839,379861000000000.0
3722.889,379865000000000.0
3722.939,379869000000000.0
3722.989,379873000000000.0
3723.039,379877000000000.0
3723.089,379881000000000.0
3723.139,379885000000000.0
3723.189,379889000000000.0
3723.239,379892000000000.0
3723.289,379897000000000.0
3723.339,379901000000000.0
3723.389,379904000000000.0
3723.439,379908000000000.0
3723.49,379912000000000.0
3723.54,379916000000000.0
3723.59,379920000000000.0
3723.64,379924000000000.0
3723.69,379928000000000.0
3723.74,379932000000000.0
3723.79,379936000000000.0
3723.84,379940000000000.0
3723.89,379944000000000.0
3723.94,379948000000000.0
3723.99,379952000000000.0
3724.04,379956000000000.0
3724.09,379960000000000.0
3724.14,379964000000000.0
3724.19,379968000000000.0
3724.24,379972000000000.0
3724.29,379976000000000.0
3724.34,379980000000000.0
3724.39,379984000000000.0
3724.44,379987000000000.0
3724.49,379992000000000.0
3724.541,379995000000000.0
3724.591,379999000000000.0
3724.641,380003000000000.0
3724.691,380007000000000.0
3724.741,380011000000000.0
3724.791,380015000000000.0
3724.841,380019000000000.0
3724.891,380023000000000.0
3724.941,380027000000000.0
3724.991,380031000000000.0
3725.041,380035000000000.0
3725.091,380039000000000.0
3725.141,380043000000000.0
3725.191,380047000000000.0
3725.241,380050000000000.0
3725.291,380055000000000.0
3725.341,380059000000000.0
3725.391,380063000000000.0
3725.441,380067000000000.0
3725.491,380070000000000.0
3725.542,380074000000000.0
3725.592,380078000000000.0
3725.642,380082000000000.0
3725.692,380086000000000.0
3725.742,380090000000000.0
3725.792,380094000000000.0
3725.842,380098000000000.0
3725.892,380102000000000.0
3725.942,380106000000000.0
3725.992,380110000000000.0
3726.042,380114000000000.0
3726.092,380118000000000.0
3726.142,380122000000000.0
3726.192,380126000000000.0
3726.242,380129000000000.0
3726.292,380133000000000.0
3726.342,380137000000000.0
3726.392,380141000000000.0
3726.442,380145000000000.0
3726.492,380149000000000.0
3726.542,380153000000000.0
3726.593,380157000000000.0
3726.643,380161000000000.0
3726.693,380165000000000.0
3726.743,380169000000000.0
3726.793,380173000000000.0
3726.843,380177000000000.0
3726.893,380181000000000.0
3726.943,380184000000000.0
3726.993,380189000000000.0
3727.043,380192000000000.0
3727.093,380196000000000.0
