Wavelength,Flux
900.0,3190750.0
903.442,3533320.0
904.998,3699000.0
906.554,3871780.0
908.11,4051940.0
909.667,4239880.0
910.703,4369330.0
911.74,4502520.0
911.84,4515570.0
912.0,4536500.0
912.31,4577310.0
912.779,4639700.0
913.717,4766810.0
914.335,4852310.0
915.329,4992760.0
915.824,5064080.0
915.892,5073970.0
916.028,5093770.0
916.3,5133610.0
916.429,5152540.0
916.686,5190600.0
917.181,5264440.0
917.448,5304860.0
917.982,5386200.0
918.129,5408700.0
918.423,5455200.0
919.004,5547480.0
919.351,5599970.0
920.045,5720550.0
920.56,5808140.0
920.963,5861770.0
921.366,5951780.0
921.769,6031120.0
922.117,6098930.0
922.506,6172930.0
922.895,6221410.0
922.992,6213510.0
923.089,6224200.0
923.114,6228590.0
923.138,6232800.0
923.144,6233850.0
923.15,6234900.0
923.156,6235950.0
923.162,6237010.0
923.187,6241400.0
923.211,6245610.0
923.261,6254580.0
923.308,6269490.0
923.402,6315460.0
923.405,6316830.0
923.455,6338840.0
923.555,6372340.0
923.755,6424890.0
923.794,6433960.0
923.872,6452360.0
924.028,6487940.0
924.183,6522440.0
924.436,6578010.0
924.688,6632860.0
924.939,6687130.0
925.189,6741480.0
925.579,6820000.0
925.774,6844570.0
925.97,6819460.0
926.067,6777710.0
926.165,6784990.0
926.189,6789550.0
926.214,6794280.0
926.22,6795420.0
926.226,6796560.0
926.232,6797700.0
926.238,6798830.0
926.263,6803590.0
926.287,6808150.0
926.337,6817880.0
926.385,6838560.0
926.481,6923150.0
926.532,6964230.0
926.632,7023330.0
926.832,7101880.0
926.873,7115180.0
926.955,7139880.0
927.119,7184910.0
927.263,7222000.0
927.551,7293460.0
927.875,7372420.0
928.487,7523850.0
929.097,7674670.0
929.706,7819580.0
930.098,7890800.0
930.295,7886520.0
930.491,7778900.0
930.589,7688350.0
930.638,7683400.0
930.687,7693660.0
930.711,7698780.0
930.736,7704110.0
930.742,7705370.0
930.748,7706650.0
930.754,7707930.0
930.76,7709210.0
930.785,7714530.0
930.809,7719660.0
930.859,7730510.0
930.907,7756400.0
930.955,7818990.0
931.003,7891140.0
931.005,7894270.0
931.055,7963550.0
931.155,8071080.0
931.255,8145300.0
931.355,8198800.0
931.398,8219350.0
931.484,8255500.0
931.657,8316590.0
931.79,8358500.0
932.057,8436430.0
932.591,8584310.0
933.033,8707640.0
933.918,8954170.0
934.276,9054230.0
934.992,9255060.0
935.514,9402100.0
936.558,9689100.0
936.753,9733650.0
937.143,9779200.0
937.148,9778800.0
937.198,9772000.0
937.298,9743120.0
937.398,9675220.0
937.498,9554370.0
937.544,9476740.0
937.636,9337780.0
937.642,9331910.0
937.692,9323010.0
937.741,9335320.0
937.766,9341660.0
937.791,9348010.0
937.797,9349530.0
937.803,9351050.0
937.809,9352580.0
937.815,9354100.0
937.84,9360480.0
937.865,9366820.0
937.915,9379740.0
937.964,9414120.0
938.013,9503380.0
938.062,9612850.0
938.16,9818740.0
938.258,9972320.0
938.356,10077000.0
938.458,10160500.0
938.662,10278300.0
938.853,10363200.0
939.235,10502800.0
940.0,10754400.0
940.434,10893900.0
941.302,11173900.0
942.015,11406700.0
942.894,11701600.0
943.773,12004700.0
944.625,12303200.0
945.478,12606000.0
947.079,13182800.0
948.68,13681600.0
949.08,13669500.0
949.28,13493500.0
949.48,13068100.0
949.58,12851800.0
949.63,12841100.0
949.68,12858000.0
949.705,12866500.0
949.73,12875000.0
949.737,12877400.0
949.743,12879400.0
949.749,12881500.0
949.755,12883500.0
949.781,12892400.0
949.806,12900900.0
949.856,12918100.0
949.906,12963200.0
949.956,13088900.0
950.006,13250900.0
950.056,13424000.0
950.156,13717200.0
950.256,13936000.0
950.356,14100100.0
950.406,14166300.0
950.506,14271800.0
950.707,14424100.0
950.806,14497600.0
951.005,14621000.0
951.402,14818700.0
952.197,15165000.0
952.407,15254000.0
952.827,15430800.0
953.666,15786500.0
954.008,15933100.0
954.692,16229300.0
955.609,16633400.0
957.211,17361000.0
958.812,18117300.0
960.413,18903800.0
960.776,19086200.0
961.14,19270700.0
961.376,19391200.0
961.611,19512100.0
962.081,19756000.0
963.021,20254000.0
963.251,20377400.0
963.71,20626300.0
964.629,21133300.0
964.89,21280100.0
965.412,21576700.0
966.456,22179100.0
966.53,22222400.0
966.678,22309300.0
966.975,22484100.0
967.567,22837400.0
968.169,23201700.0
969.372,23949400.0
969.809,24226600.0
970.683,24789900.0
971.448,25292600.0
971.858,25562600.0
972.268,25831400.0
972.37,25898000.0
972.473,25965200.0
972.499,25982200.0
972.524,25998600.0
972.531,26003100.0
972.537,26007100.0
972.543,26011000.0
972.55,26015600.0
972.575,26032000.0
972.601,26049000.0
972.653,26083000.0
972.703,26116500.0
972.803,26183800.0
972.806,26185900.0
972.856,26219600.0
972.956,26287100.0
973.156,26422600.0
973.216,26463400.0
973.336,26545400.0
973.576,26715200.0
973.626,26750700.0
973.726,26821900.0
973.926,26964800.0
974.326,27254400.0
975.126,27842400.0
975.265,27946000.0
975.544,28153300.0
976.101,28573000.0
976.905,29187300.0
978.512,30453800.0
978.544,30479400.0
978.608,30530900.0
978.735,30633800.0
978.989,30840500.0
979.498,31258200.0
980.184,31830200.0
981.556,32994100.0
981.823,33224800.0
982.357,33691200.0
983.424,34645300.0
983.463,34680300.0
983.54,34750400.0
983.694,34891000.0
984.003,35173800.0
984.62,35746300.0
985.102,36199500.0
986.065,37123300.0
986.742,37786800.0
988.095,39150500.0
988.381,39444600.0
988.953,40039900.0
990.021,41168700.0
991.66,42945500.0
993.3,44801200.0
996.58,48761600.0
996.65,48849900.0
996.79,49027100.0
997.07,49383100.0
997.63,50103600.0
998.75,51577700.0
1000.0,53273300.0
1001.912,55918800.0
1003.824,58683700.0
1005.553,61301200.0
1007.282,64036700.0
1009.011,66892800.0
1010.74,69874900.0
1012.469,72985700.0
1014.199,76174600.0
1015.928,79468900.0
1017.657,82845300.0
1019.386,86126300.0
1021.115,89144600.0
1021.979,90329200.0
1022.844,90758200.0
1023.708,89918800.0
1024.573,87811600.0
1024.624,87676700.0
1024.674,87552600.0
1024.724,87422900.0
1024.774,87340000.0
1024.824,87259800.0
1024.874,87172300.0
1024.924,87091300.0
1024.974,87005400.0
1025.006,86938400.0
1025.069,86790000.0
1025.196,86276200.0
1025.317,85402000.0
1025.438,83859400.0
1025.546,82034500.0
1025.6,81477100.0
1025.654,81444200.0
1025.681,81492400.0
1025.708,81541600.0
1025.715,81554200.0
1025.72,81563200.0
1025.722,81567100.0
1025.729,81579700.0
1025.736,81592400.0
1025.763,81641600.0
1025.79,81690900.0
1025.844,81843100.0
1025.898,82437400.0
1025.952,83481800.0
1026.005,84641200.0
1026.056,85619700.0
1026.106,86474700.0
1026.156,87161600.0
1026.206,87782700.0
1026.256,88280000.0
1026.306,88753200.0
1026.356,89145000.0
1026.406,89495300.0
1026.438,89696100.0
1026.501,90077400.0
1026.628,90801000.0
1026.87,92297100.0
1027.355,95588000.0
1028.324,101800000.0
1028.6,103345000.0
1029.152,105999000.0
1030.257,110350000.0
1030.329,110609000.0
1030.474,111124000.0
1030.763,112142000.0
1031.341,114131000.0
1032.058,116513000.0
1033.493,121027000.0
1033.787,121951000.0
1034.376,123787000.0
1035.516,127311000.0
1037.246,132877000.0
1038.975,138449000.0
1040.704,144161000.0
1042.433,150103000.0
1044.162,156194000.0
1045.892,162492000.0
1047.621,169043000.0
1048.81,173703000.0
1050.0,178413000.0
1052.38,188167000.0
1055.0,199535000.0
1057.62,211368000.0
1060.0,222689000.0
1064.76,246971000.0
1065.0,248249000.0
1065.48,250831000.0
1066.441,256070000.0
1068.363,266871000.0
1070.0,276358000.0
1073.273,296078000.0
1075.0,307038000.0
1078.453,330028000.0
1080.0,340769000.0
1081.538,351779000.0
1083.077,363157000.0
1086.155,386862000.0
1086.538,389883000.0
1087.304,395993000.0
1088.835,408481000.0
1090.0,418235000.0
1092.33,438448000.0
1095.0,462598000.0
1097.67,487850000.0
1100.0,510948000.0
1104.661,560030000.0
1105.0,563745000.0
1105.679,571233000.0
1107.036,586495000.0
1109.751,618153000.0
1110.0,621133000.0
1110.498,627138000.0
1111.494,639252000.0
1113.486,663521000.0
1115.0,682340000.0
1118.027,721274000.0
1120.0,747505000.0
1123.945,800781000.0
1125.0,815068000.0
1127.109,843398000.0
1130.0,882088000.0
1131.154,897598000.0
1132.308,912683000.0
1134.616,942674000.0
1136.154,961965000.0
1139.23,1000070000.0
1140.0,1009160000.0
1141.539,1027830000.0
1144.617,1065560000.0
1145.0,1070490000.0
1145.766,1079680000.0
1147.297,1099340000.0
1150.0,1134790000.0
1152.703,1171430000.0
1155.406,1208310000.0
1158.109,1245750000.0
1160.812,1285180000.0
1163.516,1326500000.0
1165.769,1364020000.0
1170.276,1449010000.0
1174.783,1546830000.0
1179.29,1655650000.0
1181.538,1713710000.0
1185.628,1825670000.0
1189.718,1946220000.0
1191.767,2008690000.0
1193.816,2072320000.0
1195.866,2136600000.0
1197.915,2201720000.0
1199.964,2267470000.0
1202.014,2333630000.0
1204.063,2399050000.0
1206.113,2461180000.0
1208.162,2515750000.0
1210.211,2561050000.0
1212.261,2603790000.0
1214.31,2668850000.0
1214.822,2688830000.0
1215.335,2709100000.0
1215.463,2713190000.0
1215.591,2717260000.0
1215.623,2718590000.0
1215.655,2719920000.0
1215.663,2720240000.0
1215.67,2720540000.0
1215.679,2720900000.0
1215.687,2721240000.0
1215.719,2722570000.0
1215.751,2723900000.0
1215.815,2727020000.0
1215.879,2731090000.0
1216.007,2738830000.0
1216.263,2753990000.0
1216.52,2771210000.0
1217.032,2809150000.0
1218.056,2899480000.0
1219.081,2989840000.0
1221.131,3141240000.0
1222.156,3200820000.0
1223.18,3259870000.0
1225.229,3377720000.0
1227.279,3487300000.0
1229.328,3598480000.0
1231.378,3714460000.0
1233.427,3832840000.0
1235.476,3953570000.0
1237.526,4076740000.0
1239.575,4201950000.0
1241.625,4330240000.0
1245.725,4598110000.0
1249.825,4881400000.0
1250.812,4950990000.0
1252.786,5094850000.0
1256.733,5392430000.0
1260.0,5653470000.0
1263.267,5929990000.0
1265.0,6080520000.0
1268.466,6387390000.0
1270.0,6529660000.0
1273.068,6821360000.0
1275.0,7008750000.0
1278.863,7408690000.0
1280.0,7528740000.0
1282.273,7771340000.0
1285.0,8063300000.0
1287.727,8367280000.0
1290.0,8629150000.0
1294.547,9182530000.0
1295.0,9240070000.0
1295.906,9356190000.0
1297.719,9590770000.0
1300.0,9890260000.0
1305.0,10561300000.0
1310.0,11271200000.0
1315.0,12023800000.0
1320.0,12820300000.0
1325.0,13664700000.0
1330.0,14560500000.0
1335.0,15506700000.0
1340.0,16500200000.0
1345.0,17543300000.0
1350.0,18643700000.0
1355.0,19808600000.0
1360.0,21029600000.0
1365.0,22316000000.0
1370.0,23673200000.0
1374.231,24870500000.0
1378.462,26116800000.0
1379.231,26349200000.0
1380.0,26583400000.0
1381.538,27057700000.0
1384.614,28028400000.0
1385.0,28152200000.0
1385.771,28401100000.0
1387.314,28904400000.0
1390.0,29798200000.0
1395.0,31525500000.0
1400.0,33337700000.0
1405.0,35240000000.0
1410.0,37239100000.0
1415.0,39333300000.0
1420.0,41520600000.0
1425.0,43810300000.0
1430.0,46207100000.0
1435.0,48704100000.0
1440.0,51298200000.0
1445.0,53999600000.0
1450.0,56816800000.0
1455.0,59752600000.0
1460.0,62815700000.0
1465.0,66009400000.0
1470.0,69362400000.0
1473.462,71779000000.0
1476.923,74274600000.0
1478.462,75411000000.0
1480.0,76564400000.0
1483.076,78924100000.0
1485.0,80438000000.0
1488.848,83546900000.0
1490.0,84496700000.0
1492.304,86420300000.0
1495.0,88705400000.0
1500.0,93033200000.0
1505.0,97499600000.0
1510.0,102169000000.0
1515.0,107091000000.0
1520.0,112239000000.0
1525.0,117496000000.0
1530.0,122737000000.0
1535.0,127957000000.0
1540.0,133288000000.0
1545.0,138881000000.0
1550.0,144823000000.0
1555.0,151114000000.0
1560.0,157681000000.0
1565.0,164410000000.0
1570.0,171215000000.0
1572.692,174910000000.0
1575.385,178638000000.0
1577.692,181875000000.0
1580.0,185163000000.0
1584.616,191936000000.0
1585.0,192515000000.0
1585.768,193677000000.0
1587.304,196030000000.0
1590.0,200258000000.0
1595.0,208468000000.0
1600.0,217196000000.0
1605.0,226491000000.0
1610.0,236395000000.0
1615.0,246959000000.0
1620.0,258241000000.0
1625.0,270247000000.0
1630.0,282992000000.0
1635.0,296472000000.0
1640.0,310676000000.0
1645.0,325642000000.0
1650.0,341325000000.0
1655.0,357641000000.0
1660.0,374692000000.0
1665.0,392473000000.0
1670.0,411062000000.0
1671.923,418395000000.0
1673.846,425917000000.0
1676.923,438347000000.0
1680.0,451320000000.0
1685.0,473575000000.0
1690.0,498323000000.0
1695.0,526757000000.0
1697.5,542621000000.0
1700.0,561014000000.0
1702.5,580817000000.0
1705.0,604262000000.0
1707.5,629585000000.0
1710.0,660540000000.0
1712.5,694221000000.0
1715.0,735223000000.0
1717.5,780031000000.0
1720.0,832948000000.0
1722.5,892905000000.0
1725.0,962813000000.0
1727.5,1039130000000.0
1730.0,1128960000000.0
1732.5,1223460000000.0
1735.0,1335220000000.0
1737.5,1454000000000.0
1740.0,1590050000000.0
1742.5,1732580000000.0
1745.0,1894880000000.0
1747.5,2061610000000.0
1750.0,2248640000000.0
1752.5,2441320000000.0
1755.0,2658150000000.0
1760.0,3106000000000.0
1761.154,3214180000000.0
1763.462,3431380000000.0
1768.078,3893070000000.0
1772.308,4333510000000.0
1780.767,5250500000000.0
1789.226,6172760000000.0
1806.145,8013510000000.0
1821.539,9650400000000.0
1836.933,11269900000000.0
1852.327,12911200000000.0
1867.721,14608600000000.0
1870.769,14955100000000.0
1876.865,15654400000000.0
1889.057,17098800000000.0
1901.249,18603900000000.0
1913.441,20172500000000.0
1920.0,21046200000000.0
1933.119,22853800000000.0
1946.237,24746400000000.0
1959.356,26716700000000.0
1969.231,28252900000000.0
1988.981,31456900000000.0
2008.731,34796600000000.0
2018.462,36516500000000.0
2037.924,40060500000000.0
2057.386,43818400000000.0
2067.692,45904300000000.0
2077.998,48065800000000.0
2088.303,50284700000000.0
2098.609,52584000000000.0
2108.915,54910900000000.0
2116.923,56769100000000.0
2132.94,60496900000000.0
2148.957,64245900000000.0
2164.974,67958100000000.0
2166.154,68220700000000.0
2168.513,68747200000000.0
2173.232,69809000000000.0
2182.67,71924500000000.0
2201.545,75972400000000.0
2215.385,78873900000000.0
2229.225,81822900000000.0
2243.066,84839500000000.0
2256.906,87977300000000.0
2264.615,89787300000000.0
2280.033,93529200000000.0
2295.451,97566300000000.0
2310.869,101941000000000.0
2313.846,102821000000000.0
2319.8,104597000000000.0
2331.708,108517000000000.0
2343.616,112648000000000.0
2355.525,117128000000000.0
2363.077,120078000000000.0
2378.181,126292000000000.0
2393.286,132693000000000.0
2408.39,139153000000000.0
2412.307,140821000000000.0
2420.14,144205000000000.0
2435.806,150539000000000.0
2451.472,156573000000000.0
2461.538,160353000000000.0
2471.604,163799000000000.0
2481.67,167243000000000.0
2491.737,170405000000000.0
2501.803,173555000000000.0
2510.769,176165000000000.0
2528.702,181238000000000.0
2546.634,186054000000000.0
2560.0,189527000000000.0
2573.366,192864000000000.0
2586.731,196152000000000.0
2600.097,199387000000000.0
2613.463,202552000000000.0
2626.829,205686000000000.0
2640.194,208788000000000.0
2653.56,211847000000000.0
2658.461,212966000000000.0
2668.263,215175000000000.0
2687.866,219620000000000.0
2707.47,224045000000000.0
2727.073,228308000000000.0
2746.677,232517000000000.0
2756.923,234704000000000.0
2767.169,236871000000000.0
2777.416,239027000000000.0
2787.662,241173000000000.0
2797.908,243309000000000.0
2808.155,245434000000000.0
2818.401,247547000000000.0
2828.647,249650000000000.0
2838.894,251741000000000.0
2849.14,253821000000000.0
2855.385,255082000000000.0
2867.875,257580000000000.0
2880.365,260061000000000.0
2892.854,262522000000000.0
2905.344,264964000000000.0
2917.834,267387000000000.0
2930.323,269791000000000.0
2942.813,272174000000000.0
2945.1,272608000000000.0
2949.674,273474000000000.0
2953.846,274262000000000.0
2962.19,275821000000000.0
2978.879,278913000000000.0
2995.567,281966000000000.0
3012.256,284980000000000.0
3028.944,287956000000000.0
3045.633,290891000000000.0
3052.308,292055000000000.0
3065.659,294352000000000.0
3079.01,296623000000000.0
3092.361,298869000000000.0
3105.712,301087000000000.0
3119.063,303279000000000.0
3132.415,305443000000000.0
3145.766,307580000000000.0
3150.769,308374000000000.0
3160.776,309949000000000.0
3170.783,311509000000000.0
3180.79,313053000000000.0
3187.7,314111000000000.0
3201.521,316203000000000.0
3215.342,318265000000000.0
3229.162,320298000000000.0
3242.983,322301000000000.0
3249.231,323196000000000.0
3261.727,324968000000000.0
3274.222,326716000000000.0
3286.718,328439000000000.0
3299.213,330137000000000.0
3311.709,331810000000000.0
3324.205,333459000000000.0
3336.7,335082000000000.0
3347.692,336491000000000.0
3358.684,337880000000000.0
3369.675,339250000000000.0
3380.667,340600000000000.0
3391.659,341932000000000.0
3402.65,343245000000000.0
3413.642,344539000000000.0
3424.634,345813000000000.0
3435.625,347069000000000.0
3446.154,348253000000000.0
3456.683,349418000000000.0
3467.211,350565000000000.0
3477.74,351694000000000.0
3488.268,352807000000000.0
3498.797,353901000000000.0
3509.325,354979000000000.0
3519.854,356040000000000.0
3530.383,357083000000000.0
3540.911,358109000000000.0
3544.615,358466000000000.0
3552.023,359171000000000.0
3566.838,360556000000000.0
3581.654,361908000000000.0
3595.868,363173000000000.0
3610.082,364405000000000.0
3624.297,365607000000000.0
3638.511,366778000000000.0
3646.5,367423000000000.0
3647.0,367463000000000.0
3647.12,367473000000000.0
3647.22,367179000000000.0
3647.42,367196000000000.0
3647.819,367228000000000.0
3648.0,367243000000000.0
3648.362,367273000000000.0
3649.085,367333000000000.0
3650.533,367452000000000.0
3653.427,367689000000000.0
3659.216,368160000000000.0
3665.005,368626000000000.0
3668.675,368919000000000.0
3676.014,369499000000000.0
3682.807,370028000000000.0
3686.832,370338000000000.0
3690.13,370591000000000.0
3691.554,370698000000000.0
3694.402,370916000000000.0
3696.486,371073000000000.0
3697.152,371121000000000.0
3698.484,371224000000000.0
3701.148,371424000000000.0
3702.843,371550000000000.0
3703.853,371620000000000.0
3705.0,371711000000000.0
3707.294,371881000000000.0
3709.2,372022000000000.0
3711.971,372214000000000.0
3715.556,372487000000000.0
3721.913,372925000000000.0
3721.938,372926000000000.0
3721.988,372931000000000.0
3722.038,372937000000000.0
3722.088,372943000000000.0
3722.138,372950000000000.0
3722.188,372956000000000.0
3722.238,372962000000000.0
3722.288,372967000000000.0
3722.338,372972000000000.0
3722.388,372977000000000.0
3722.438,372981000000000.0
3722.489,372985000000000.0
3722.539,372990000000000.0
3722.589,372993000000000.0
3722.639,372997000000000.0
3722.689,373001000000000.0
3722.739,373005000000000.0
3722.789,373009000000000.0
3722.839,373012000000000.0
3722.889,373016000000000.0
3722.939,373019000000000.0
3722.989,373023000000000.0
3723.039,373027000000000.0
3723.089,373031000000000.0
3723.139,373034000000000.0
3723.189,373038000000000.0
3723.239,373041000000000.0
3723.289,373045000000000.0
3723.339,373049000000000.0
3723.389,373052000000000.0
3723.439,373056000000000.0
3723.49,373059000000000.0
3723.54,373063000000000.0
3723.59,373067000000000.0
3723.64,373070000000000.0
3723.69,373074000000000.0
3723.74,373077000000000.0
3723.79,373081000000000.0
3723.84,373085000000000.0
3723.89,373088000000000.0
3723.94,373092000000000.0
3723.99,373096000000000.0
3724.04,373099000000000.0
3724.09,373103000000000.0
3724.14,373106000000000.0
3724.19,373110000000000.0
3724.24,373114000000000.0
3724.29,373117000000000.0
3724.34,373121000000000.0
3724.39,373124000000000.0
3724.44,373128000000000.0
3724.49,373131000000000.0
3724.541,373135000000000.0
3724.591,373138000000000.0
3724.641,373142000000000.0
3724.691,373145000000000.0
3724.741,373149000000000.0
3724.791,373153000000000.0
3724.841,373156000000000.0
3724.891,373160000000000.0
3724.941,373163000000000.0
3724.991,373167000000000.0
3725.041,373171000000000.0
3725.091,373174000000000.0
3725.141,373178000000000.0
3725.191,373181000000000.0
3725.241,373185000000000.0
3725.291,373188000000000.0
3725.341,373192000000000.0
3725.391,373196000000000.0
3725.441,373199000000000.0
3725.491,373203000000000.0
3725.542,373206000000000.0
3725.592,373210000000000.0
3725.642,373214000000000.0
3725.692,373217000000000.0
3725.742,373220000000000.0
3725.792,373224000000000.0
3725.842,373228000000000.0
3725.892,373232000000000.0
3725.942,373235000000000.0
3725.992,373238000000000.0
3726.042,373242000000000.0
3726.092,373246000000000.0
3726.142,373249000000000.0
3726.192,373253000000000.0
3726.242,373256000000000.0
3726.292,373260000000000.0
3726.342,373263000000000.0
3726.392,373267000000000.0
3726.442,373270000000000.0
3726.492,373274000000000.0
3726.542,373278000000000.0
