Wavelength,Flux
900.0,2305090.0
903.442,2555740.0
904.998,2677070.0
906.554,2803670.0
908.11,2935750.0
909.667,3073620.0
910.703,3168610.0
911.74,3266400.0
911.84,3275980.0
912.0,3291350.0
912.31,3321320.0
912.779,3367140.0
913.717,3460540.0
914.335,3523370.0
915.329,3626610.0
915.824,3679060.0
915.892,3686320.0
916.028,3701130.0
916.3,3730320.0
916.429,3744100.0
916.686,3773940.0
917.181,3826430.0
917.448,3863280.0
917.982,3919520.0
918.129,3932570.0
918.423,3989560.0
918.717,4038450.0
919.004,4075110.0
919.177,4068890.0
919.351,4073360.0
919.401,4079220.0
919.501,4100840.0
919.701,4181310.0
919.901,4226800.0
920.101,4264390.0
920.301,4298830.0
920.501,4325340.0
920.56,4329050.0
920.678,4321120.0
920.796,4271360.0
920.914,4260160.0
920.963,4266180.0
921.062,4278480.0
921.16,4342840.0
921.259,4418750.0
921.357,4466960.0
921.456,4501500.0
921.653,4553100.0
922.047,4639620.0
922.117,4653930.0
922.258,4681160.0
922.506,4721140.0
922.701,4729610.0
922.895,4652130.0
922.943,4603520.0
922.992,4549800.0
923.042,4528230.0
923.089,4533260.0
923.114,4536500.0
923.138,4539590.0
923.144,4540370.0
923.15,4541150.0
923.156,4541920.0
923.162,4542700.0
923.187,4545940.0
923.211,4549050.0
923.261,4556960.0
923.308,4591980.0
923.358,4665520.0
923.405,4733030.0
923.499,4835130.0
923.593,4902890.0
923.687,4949330.0
923.794,4989830.0
924.007,5056240.0
924.183,5102620.0
924.436,5164550.0
924.688,5223990.0
924.939,5280720.0
925.189,5332830.0
925.579,5381090.0
925.676,5373510.0
925.774,5344660.0
925.871,5276310.0
925.969,5146190.0
925.97,5144520.0
926.02,5053520.0
926.067,4972170.0
926.114,4941490.0
926.161,4946360.0
926.165,4946900.0
926.189,4950270.0
926.214,4953760.0
926.22,4954600.0
926.226,4955450.0
926.232,4956290.0
926.238,4957120.0
926.263,4960630.0
926.287,4964000.0
926.337,4972530.0
926.385,5017630.0
926.435,5123430.0
926.482,5227940.0
926.576,5402070.0
926.67,5523240.0
926.764,5607000.0
926.858,5668240.0
926.873,5676610.0
926.923,5702520.0
927.023,5747370.0
927.223,5820400.0
927.263,5833380.0
927.343,5858240.0
927.503,5905330.0
927.824,5994690.0
927.875,6008600.0
927.978,6036210.0
928.184,6091240.0
928.487,6171690.0
929.094,6326450.0
929.097,6327280.0
929.147,6339460.0
929.247,6363250.0
929.447,6407570.0
929.647,6444340.0
929.706,6452730.0
929.824,6464090.0
930.06,6446710.0
930.098,6434930.0
930.174,6400280.0
930.25,6342980.0
930.325,6250470.0
930.401,6115330.0
930.477,5934730.0
930.491,5897290.0
930.541,5760750.0
930.589,5647620.0
930.637,5611660.0
930.685,5617710.0
930.687,5618040.0
930.711,5621810.0
930.736,5625750.0
930.742,5626690.0
930.748,5627630.0
930.754,5628580.0
930.76,5629530.0
930.785,5633460.0
930.809,5637240.0
930.859,5646620.0
930.907,5698150.0
930.957,5835030.0
931.005,5985170.0
931.101,6260750.0
931.197,6470910.0
931.293,6620440.0
931.398,6735900.0
931.503,6823340.0
931.712,6948870.0
931.79,6988010.0
931.945,7056030.0
932.255,7166520.0
932.876,7348160.0
933.033,7392130.0
933.347,7480110.0
933.975,7657200.0
934.276,7740170.0
934.878,7901440.0
935.514,8068270.0
936.133,8217170.0
936.753,8258710.0
936.951,8199890.0
937.148,8062360.0
937.247,7938970.0
937.346,7756200.0
937.444,7500970.0
937.543,7179080.0
937.594,7005350.0
937.642,6866810.0
937.69,6825050.0
937.738,6832380.0
937.741,6832940.0
937.766,6837630.0
937.791,6842340.0
937.797,6843470.0
937.803,6844600.0
937.809,6845730.0
937.815,6846860.0
937.84,6851580.0
937.865,6856290.0
937.915,6867260.0
937.964,6928050.0
938.014,7094430.0
938.062,7278740.0
938.158,7638470.0
938.254,7938600.0
938.35,8174100.0
938.458,8375440.0
938.566,8531820.0
938.674,8655770.0
938.853,8825050.0
939.032,8953400.0
939.212,9055640.0
939.571,9232010.0
940.289,9499450.0
940.434,9549960.0
940.725,9650470.0
941.307,9855260.0
942.015,10104000.0
942.894,10418600.0
943.773,10730200.0
944.625,11042800.0
945.478,11365200.0
947.079,11932600.0
947.479,12030000.0
947.88,12088000.0
948.28,12050300.0
948.68,11808600.0
948.88,11555800.0
949.08,11202300.0
949.18,10973800.0
949.28,10689500.0
949.38,10330900.0
949.48,9894880.0
949.53,9674000.0
949.58,9485260.0
949.63,9437110.0
949.68,9448320.0
949.705,9454650.0
949.73,9460960.0
949.737,9462740.0
949.743,9464270.0
949.749,9465790.0
949.755,9467300.0
949.781,9473900.0
949.806,9480240.0
949.856,9494420.0
949.906,9568550.0
949.956,9784820.0
950.006,10034900.0
950.106,10532500.0
950.206,10956400.0
950.306,11307800.0
950.406,11607400.0
950.606,12114500.0
950.806,12539600.0
951.006,12877900.0
951.206,13146000.0
951.406,13365400.0
951.805,13711500.0
952.205,13985100.0
952.407,14106400.0
952.811,14330600.0
953.62,14748900.0
954.008,14943200.0
954.784,15335200.0
955.609,15762400.0
957.211,16528600.0
958.812,17328300.0
960.413,18183400.0
960.776,18386200.0
961.14,18590300.0
961.376,18724700.0
961.611,18854100.0
962.081,19111700.0
963.021,19642800.0
963.251,19776300.0
963.71,20040900.0
964.629,20577500.0
964.89,20734000.0
965.412,21052500.0
966.456,21688500.0
966.53,21734600.0
966.678,21827100.0
966.975,22013700.0
967.567,22394600.0
968.169,22776900.0
969.372,23565600.0
969.809,23861400.0
970.683,24442300.0
971.448,24936400.0
971.858,25117600.0
972.268,25233100.0
972.37,25249000.0
972.473,25264400.0
972.499,25268400.0
972.524,25272000.0
972.531,25272900.0
972.537,25273600.0
972.543,25274400.0
972.55,25276100.0
972.575,25282200.0
972.601,25288500.0
972.653,25301200.0
972.703,25324000.0
972.803,25373800.0
972.806,25375300.0
972.856,25401100.0
972.956,25453500.0
973.156,25559700.0
973.216,25591800.0
973.336,25660500.0
973.576,25855300.0
973.626,25896200.0
973.726,25978400.0
973.926,26144900.0
974.326,26514500.0
975.126,27303200.0
975.265,27441100.0
975.544,27699200.0
976.101,28198000.0
976.905,28890500.0
978.512,30296000.0
978.544,30324900.0
978.608,30382400.0
978.735,30496500.0
978.989,30724600.0
979.498,31189400.0
980.184,31802000.0
981.556,33020200.0
981.823,33264900.0
982.357,33756500.0
983.424,34740900.0
983.463,34776900.0
983.54,34849000.0
983.694,34994300.0
984.003,35287700.0
984.62,35887500.0
985.102,36364400.0
986.065,37321000.0
986.742,38004100.0
988.095,39431700.0
988.381,39742700.0
988.953,40356100.0
990.021,41524100.0
991.66,43424900.0
993.3,45360600.0
996.58,49532100.0
996.65,49624300.0
996.79,49809200.0
997.07,50182300.0
997.63,50946900.0
998.75,52517200.0
1000.0,54246100.0
1001.912,57065600.0
1003.824,59935300.0
1005.553,62680800.0
1007.282,65508800.0
1009.011,68318400.0
1010.74,71242800.0
1012.469,74231400.0
1014.199,77317000.0
1015.928,80170400.0
1017.657,82714300.0
1019.386,84566700.0
1020.25,84916600.0
1021.115,84754000.0
1021.979,84018600.0
1022.844,82789900.0
1023.276,81838900.0
1023.708,80588000.0
1024.141,78858700.0
1024.573,76429100.0
1024.624,76055300.0
1024.674,75678500.0
1024.724,75277800.0
1024.774,74896400.0
1024.824,74500700.0
1024.874,74073000.0
1024.924,73639700.0
1024.974,73171200.0
1025.006,72871500.0
1025.069,72233400.0
1025.196,70691300.0
1025.317,68646400.0
1025.438,65764300.0
1025.546,62655200.0
1025.6,61510400.0
1025.654,61231900.0
1025.681,61265300.0
1025.708,61302800.0
1025.715,61312400.0
1025.72,61319300.0
1025.722,61322200.0
1025.729,61331800.0
1025.736,61341400.0
1025.763,61378900.0
1025.79,61416500.0
1025.844,61661100.0
1025.871,62079600.0
1025.898,62720100.0
1025.952,64361700.0
1026.005,66126200.0
1026.056,67670200.0
1026.106,69043700.0
1026.156,70250500.0
1026.206,71324200.0
1026.256,72280600.0
1026.306,73149800.0
1026.356,73932200.0
1026.406,74664000.0
1026.438,75107100.0
1026.501,75913300.0
1026.628,77495900.0
1026.87,80229800.0
1027.112,82631000.0
1027.355,84804500.0
1027.839,88579000.0
1028.324,91909200.0
1028.6,93703900.0
1029.152,96932700.0
1030.257,102925000.0
1030.329,103319000.0
1030.474,104115000.0
1030.763,105710000.0
1031.341,108944000.0
1032.058,112721000.0
1033.493,119262000.0
1033.787,120526000.0
1034.376,122798000.0
1035.516,127076000.0
1037.246,134823000.0
1038.975,142470000.0
1040.704,149137000.0
1042.433,156152000.0
1044.162,163482000.0
1045.892,170891000.0
1047.621,178428000.0
1048.81,183951000.0
1050.0,189855000.0
1052.38,201348000.0
1055.0,214783000.0
1057.62,229516000.0
1060.0,242963000.0
1062.38,258733000.0
1064.76,275917000.0
1065.0,277588000.0
1065.48,280941000.0
1066.441,287858000.0
1068.363,302540000.0
1070.0,315290000.0
1073.273,340464000.0
1075.0,354586000.0
1076.727,370476000.0
1078.453,388118000.0
1080.0,403580000.0
1081.538,420587000.0
1083.077,439029000.0
1086.155,477394000.0
1086.538,481590000.0
1087.304,490142000.0
1088.835,507897000.0
1090.0,522190000.0
1092.33,553910000.0
1094.661,586999000.0
1095.0,591343000.0
1095.679,600148000.0
1097.036,618717000.0
1099.751,659540000.0
1100.0,663528000.0
1100.498,671797000.0
1101.494,688756000.0
1103.486,717723000.0
1105.0,737417000.0
1108.027,777573000.0
1110.0,805449000.0
1111.973,826015000.0
1113.945,843061000.0
1115.0,851624000.0
1117.109,867843000.0
1120.0,884462000.0
1121.445,884259000.0
1122.891,882602000.0
1125.0,877142000.0
1129.219,873203000.0
1130.0,874237000.0
1131.154,878719000.0
1132.308,883458000.0
1134.616,897362000.0
1136.154,908454000.0
1139.23,935151000.0
1140.0,942076000.0
1141.539,957632000.0
1144.617,991462000.0
1145.0,996046000.0
1145.766,1004660000.0
1147.297,1023280000.0
1150.0,1057360000.0
1152.703,1093080000.0
1155.406,1129230000.0
1158.109,1165500000.0
1160.812,1203960000.0
1163.516,1242560000.0
1165.769,1274500000.0
1170.276,1340110000.0
1174.783,1411550000.0
1179.29,1492100000.0
1181.538,1536830000.0
1185.628,1627330000.0
1189.718,1726250000.0
1191.767,1776310000.0
1193.816,1825170000.0
1195.866,1872880000.0
1197.915,1920130000.0
1199.964,1967800000.0
1202.014,2016490000.0
1204.063,2063530000.0
1206.113,2103710000.0
1208.162,2130560000.0
1210.211,2138180000.0
1210.261,2138240000.0
1210.311,2138330000.0
1210.361,2138440000.0
1210.411,2138580000.0
1210.461,2138740000.0
1210.511,2138750000.0
1210.561,2138250000.0
1210.611,2137850000.0
1210.661,2137490000.0
1210.712,2137180000.0
1210.762,2136890000.0
1210.812,2136640000.0
1210.862,2136380000.0
1210.912,2136230000.0
1210.962,2136120000.0
1211.012,2135870000.0
1211.062,2135110000.0
1211.112,2134410000.0
1211.162,2133770000.0
1211.212,2133190000.0
1211.262,2132660000.0
1211.312,2132180000.0
1211.362,2131740000.0
1211.412,2131310000.0
1211.462,2130910000.0
1211.512,2130530000.0
1211.562,2130130000.0
1211.612,2129880000.0
1211.662,2129680000.0
1211.713,2129580000.0
1211.763,2129550000.0
1211.813,2129550000.0
1211.863,2129580000.0
1211.913,2129650000.0
1211.963,2129750000.0
1212.013,2129670000.0
1212.063,2129000000.0
1212.113,2128410000.0
1212.163,2127840000.0
1212.213,2127310000.0
1212.261,2126860000.0
1212.357,2126090000.0
1212.549,2125030000.0
1212.933,2123530000.0
1213.7,2127300000.0
1214.31,2135320000.0
1214.822,2146110000.0
1215.335,2153270000.0
1215.463,2144400000.0
1215.591,2135940000.0
1215.623,2136980000.0
1215.655,2138040000.0
1215.663,2138300000.0
1215.67,2138530000.0
1215.679,2138830000.0
1215.687,2139090000.0
1215.719,2140150000.0
1215.751,2141240000.0
1215.815,2147460000.0
1215.879,2161060000.0
1216.007,2184700000.0
1216.263,2216960000.0
1216.519,2247640000.0
1216.52,2247780000.0
1216.57,2252940000.0
1216.62,2258320000.0
1216.67,2263790000.0
1216.72,2269330000.0
1216.77,2275130000.0
1216.82,2281240000.0
1216.87,2287530000.0
1216.92,2293980000.0
1216.97,2300640000.0
1217.021,2306850000.0
1217.032,2308060000.0
1217.082,2313400000.0
1217.132,2319010000.0
1217.182,2324970000.0
1217.232,2331250000.0
1217.282,2337670000.0
1217.332,2344230000.0
1217.382,2351040000.0
1217.432,2358130000.0
1217.482,2365510000.0
1217.532,2371740000.0
1217.583,2377160000.0
1217.633,2382700000.0
1217.683,2388420000.0
1217.733,2394410000.0
1217.783,2400570000.0
1217.833,2406900000.0
1217.883,2413410000.0
1217.933,2420120000.0
1217.983,2427080000.0
1218.033,2433020000.0
1218.083,2438510000.0
1218.133,2444240000.0
1218.183,2450200000.0
1218.233,2456290000.0
1218.283,2462560000.0
1218.333,2469000000.0
1218.383,2475610000.0
1218.433,2482020000.0
1218.483,2488920000.0
1218.533,2494340000.0
1218.583,2498990000.0
1218.634,2503730000.0
1218.684,2508510000.0
1218.734,2513360000.0
1218.784,2518310000.0
1218.834,2523480000.0
1218.884,2528750000.0
1218.934,2534130000.0
1218.984,2539580000.0
1219.034,2544710000.0
1219.081,2549430000.0
1219.175,2558990000.0
1219.364,2579070000.0
1219.741,2617340000.0
1220.495,2682790000.0
1221.131,2737420000.0
1222.404,2825870000.0
1223.18,2888940000.0
1224.733,3005370000.0
1225.229,3036780000.0
1226.221,3093110000.0
1227.279,3147320000.0
1229.328,3256730000.0
1231.378,3373100000.0
1233.427,3491480000.0
1235.476,3610230000.0
1237.526,3729500000.0
1239.575,3848370000.0
1241.625,3969520000.0
1245.725,4224180000.0
1249.825,4494960000.0
1250.812,4560250000.0
1252.786,4698530000.0
1256.733,4982670000.0
1260.0,5235610000.0
1263.267,5507400000.0
1265.0,5654840000.0
1268.466,5949510000.0
1270.0,6087890000.0
1273.068,6370450000.0
1275.0,6550090000.0
1278.863,6938970000.0
1280.0,7054620000.0
1282.273,7287740000.0
1285.0,7564190000.0
1287.727,7853320000.0
1290.0,8102840000.0
1294.547,8632460000.0
1295.0,8687620000.0
1295.906,8798910000.0
1297.719,9023130000.0
1300.0,9308450000.0
1305.0,9944570000.0
1310.0,10617700000.0
1315.0,11331900000.0
1320.0,12087900000.0
1325.0,12889200000.0
1330.0,13739300000.0
1335.0,14636500000.0
1340.0,15577900000.0
1345.0,16566300000.0
1350.0,17609000000.0
1355.0,18712700000.0
1360.0,19869800000.0
1365.0,21088500000.0
1370.0,22374200000.0
1374.231,23508900000.0
1378.462,24690300000.0
1379.231,24910600000.0
1380.0,25132700000.0
1381.538,25582100000.0
1384.614,26501800000.0
1385.0,26619100000.0
1385.771,26854900000.0
1387.314,27331800000.0
1390.0,28178900000.0
1395.0,29815800000.0
1400.0,31533300000.0
1405.0,33336300000.0
1410.0,35231000000.0
1415.0,37216000000.0
1420.0,39290000000.0
1425.0,41461100000.0
1430.0,43733700000.0
1435.0,46102200000.0
1440.0,48566900000.0
1445.0,51134300000.0
1450.0,53812300000.0
1455.0,56603800000.0
1460.0,59516800000.0
1465.0,62554600000.0
1470.0,65743100000.0
1473.462,68040700000.0
1476.923,70412600000.0
1478.462,71492500000.0
1480.0,72588400000.0
1483.076,74830200000.0
1485.0,76267100000.0
1488.848,79217100000.0
1490.0,80118300000.0
1492.304,81943500000.0
1495.0,84113000000.0
1500.0,88225900000.0
1505.0,92474300000.0
1510.0,96914100000.0
1515.0,101588000000.0
1520.0,106475000000.0
1525.0,111473000000.0
1530.0,116477000000.0
1535.0,121482000000.0
1540.0,126599000000.0
1545.0,131964000000.0
1550.0,137648000000.0
1555.0,143657000000.0
1560.0,149926000000.0
1565.0,156354000000.0
1570.0,162868000000.0
1572.692,166408000000.0
1575.385,169979000000.0
1577.692,173080000000.0
1580.0,176243000000.0
1584.616,182750000000.0
1585.0,183306000000.0
1585.768,184422000000.0
1587.304,186679000000.0
1590.0,190731000000.0
1595.0,198584000000.0
1600.0,206915000000.0
1605.0,215760000000.0
1610.0,225180000000.0
1615.0,235213000000.0
1620.0,245873000000.0
1625.0,257169000000.0
1630.0,269110000000.0
1635.0,281769000000.0
1640.0,295142000000.0
1645.0,309306000000.0
1650.0,324306000000.0
1655.0,340182000000.0
1660.0,357136000000.0
1665.0,375221000000.0
1670.0,394625000000.0
1671.923,402446000000.0
1673.846,410552000000.0
1676.923,424181000000.0
1680.0,439013000000.0
1685.0,466133000000.0
1687.5,481219000000.0
1690.0,498742000000.0
1692.5,517887000000.0
1695.0,541513000000.0
1697.5,567251000000.0
1700.0,598639000000.0
1702.5,635069000000.0
1705.0,681119000000.0
1707.5,734575000000.0
1710.0,800523000000.0
1711.25,837880000000.0
1712.5,878457000000.0
1713.75,924524000000.0
1715.0,977698000000.0
1717.5,1094220000000.0
1718.75,1163790000000.0
1720.0,1243700000000.0
1722.5,1412650000000.0
1723.75,1512200000000.0
1725.0,1630450000000.0
1727.5,1879910000000.0
1728.75,2026120000000.0
1730.0,2194740000000.0
1732.5,2551770000000.0
1733.75,2759090000000.0
1735.0,2996060000000.0
1737.5,3483080000000.0
1738.75,3762190000000.0
1740.0,4078550000000.0
1742.5,4728030000000.0
1743.75,5094420000000.0
1745.0,5503940000000.0
1747.5,6321570000000.0
1748.75,6776240000000.0
1750.0,7280860000000.0
1752.5,8279260000000.0
1755.0,9421320000000.0
1757.5,10552200000000.0
1759.327,11447700000000.0
1761.154,12377200000000.0
1764.808,14254000000000.0
1772.116,18120800000000.0
1772.308,18219900000000.0
1772.808,18481300000000.0
1773.808,19018300000000.0
1775.808,20119400000000.0
1779.808,22182200000000.0
1783.808,24179400000000.0
1791.808,27969100000000.0
1795.808,29734300000000.0
1799.808,31365800000000.0
1807.808,34354500000000.0
1815.808,37040300000000.0
1821.539,38767800000000.0
1827.27,40376600000000.0
1838.732,43320200000000.0
1850.194,45999900000000.0
1861.656,48500400000000.0
1870.769,50416100000000.0
1888.996,54112600000000.0
1907.223,57752800000000.0
1920.0,60304800000000.0
1932.777,62855300000000.0
1945.555,65427300000000.0
1958.332,68020000000000.0
1969.231,70252100000000.0
1980.13,72489600000000.0
1991.029,74745200000000.0
2001.928,77016200000000.0
2012.827,79301200000000.0
2018.462,80496000000000.0
2029.733,82878600000000.0
2041.004,85290200000000.0
2052.274,87721700000000.0
2063.545,90183100000000.0
2067.692,91094200000000.0
2075.985,92918100000000.0
2092.572,96602800000000.0
2109.159,100331000000000.0
2116.923,102091000000000.0
2132.451,105600000000000.0
2147.979,109126000000000.0
2163.507,112662000000000.0
2166.154,113261000000000.0
2171.449,114456000000000.0
2182.039,116855000000000.0
2192.629,119240000000000.0
2203.219,121636000000000.0
2213.808,124031000000000.0
2215.385,124389000000000.0
2218.538,125101000000000.0
2224.845,126528000000000.0
2237.458,129395000000000.0
2250.072,132285000000000.0
2262.685,135197000000000.0
2264.615,135646000000000.0
2268.475,136540000000000.0
2276.196,138333000000000.0
2291.637,141953000000000.0
2307.079,145621000000000.0
2313.846,147245000000000.0
2327.38,150509000000000.0
2340.914,153811000000000.0
2354.448,157164000000000.0
2363.077,159311000000000.0
2380.334,163617000000000.0
2397.591,167926000000000.0
2412.307,171582000000000.0
2427.023,175196000000000.0
2441.74,178782000000000.0
2456.456,182323000000000.0
2461.538,183542000000000.0
2471.703,185942000000000.0
2481.867,188338000000000.0
2492.032,190708000000000.0
2502.196,193072000000000.0
2510.769,195048000000000.0
2527.915,198961000000000.0
2545.06,202844000000000.0
2560.0,206205000000000.0
2574.94,209521000000000.0
2589.88,212819000000000.0
2604.82,216098000000000.0
2619.76,219359000000000.0
2634.7,222599000000000.0
2649.64,225820000000000.0
2658.461,227713000000000.0
2676.104,231442000000000.0
2693.746,235150000000000.0
2711.389,238821000000000.0
2729.031,242479000000000.0
2746.674,246081000000000.0
2756.923,248159000000000.0
2767.172,250207000000000.0
2777.422,252243000000000.0
2787.671,254266000000000.0
2797.92,256278000000000.0
2808.169,258278000000000.0
2818.419,260265000000000.0
2828.668,262239000000000.0
2838.917,264201000000000.0
2849.167,266149000000000.0
2855.385,267325000000000.0
2867.822,269641000000000.0
2880.259,271937000000000.0
2892.696,274213000000000.0
2905.133,276469000000000.0
2917.57,278704000000000.0
2930.007,280917000000000.0
2942.444,283110000000000.0
2945.1,283575000000000.0
2950.412,284503000000000.0
2953.846,285100000000000.0
2960.714,286278000000000.0
2974.449,288614000000000.0
2988.184,290926000000000.0
3001.92,293211000000000.0
3015.655,295469000000000.0
3029.39,297699000000000.0
3043.126,299901000000000.0
3052.308,301358000000000.0
3070.673,304213000000000.0
3089.038,307017000000000.0
3107.402,309769000000000.0
3125.767,312469000000000.0
3144.132,315118000000000.0
3150.769,316063000000000.0
3164.043,317928000000000.0
3177.318,319765000000000.0
3187.7,321183000000000.0
3198.082,322585000000000.0
3208.464,323969000000000.0
3218.846,325337000000000.0
3229.228,326688000000000.0
3239.61,328022000000000.0
3249.231,329244000000000.0
3268.472,331640000000000.0
3287.713,333978000000000.0
3306.955,336258000000000.0
3326.196,338482000000000.0
3345.437,340648000000000.0
3347.692,340898000000000.0
3352.202,341395000000000.0
3361.221,342380000000000.0
3379.26,344314000000000.0
3397.299,346197000000000.0
3415.338,348031000000000.0
3433.377,349816000000000.0
