Wavelength,Flux
900.0,55909600.0
903.442,61240600.0
904.998,63798500.0
906.554,66452900.0
908.11,69207000.0
909.667,72066300.0
910.703,74027600.0
911.74,76039100.0
911.84,76235600.0
912.0,76551100.0
912.31,77165700.0
912.779,78104000.0
913.717,80011600.0
914.335,81291500.0
915.329,83389000.0
915.824,84451600.0
915.892,84598600.0
916.028,84894700.0
916.3,85486500.0
916.429,85767200.0
916.686,86342800.0
917.181,87428100.0
917.448,88064900.0
917.982,89242600.0
918.129,89563400.0
918.423,90368800.0
919.004,91823200.0
919.351,92385500.0
919.698,93602900.0
920.045,94649700.0
920.56,95956800.0
920.963,96231400.0
921.165,97030600.0
921.366,98210200.0
921.568,98979000.0
921.769,99645500.0
921.971,100277000.0
922.117,100723000.0
922.41,101571000.0
922.506,101821000.0
922.699,102184000.0
922.895,101898000.0
922.992,101415000.0
923.089,101525000.0
923.114,101589000.0
923.138,101650000.0
923.144,101665000.0
923.15,101681000.0
923.156,101696000.0
923.162,101711000.0
923.187,101775000.0
923.211,101836000.0
923.261,101968000.0
923.308,102228000.0
923.402,103266000.0
923.405,103300000.0
923.455,103826000.0
923.555,104627000.0
923.755,105719000.0
923.794,105889000.0
923.872,106210000.0
924.028,106809000.0
924.183,107375000.0
924.436,108268000.0
924.688,109132000.0
924.939,109972000.0
925.189,110775000.0
925.579,111766000.0
925.774,111757000.0
925.97,110513000.0
926.067,109571000.0
926.165,109650000.0
926.189,109716000.0
926.214,109784000.0
926.22,109801000.0
926.226,109817000.0
926.232,109834000.0
926.238,109850000.0
926.263,109919000.0
926.287,109985000.0
926.337,110125000.0
926.385,110446000.0
926.481,111979000.0
926.532,112827000.0
926.632,114201000.0
926.832,115921000.0
926.873,116176000.0
926.955,116645000.0
927.119,117451000.0
927.263,118084000.0
927.551,119250000.0
927.875,120502000.0
928.487,122800000.0
929.097,125052000.0
929.706,127066000.0
930.098,127591000.0
930.294,126762000.0
930.49,124039000.0
930.541,123172000.0
930.589,122587000.0
930.637,122517000.0
930.685,122659000.0
930.687,122666000.0
930.711,122738000.0
930.736,122814000.0
930.742,122832000.0
930.748,122850000.0
930.754,122869000.0
930.76,122887000.0
930.785,122963000.0
930.809,123035000.0
930.859,123190000.0
930.907,123554000.0
930.955,124445000.0
931.003,125585000.0
931.005,125636000.0
931.055,126885000.0
931.155,129079000.0
931.255,130725000.0
931.355,131932000.0
931.398,132360000.0
931.484,133111000.0
931.657,134293000.0
931.79,135055000.0
932.057,136373000.0
932.591,138708000.0
933.033,140560000.0
933.918,144208000.0
934.276,145679000.0
934.992,148611000.0
935.514,150732000.0
936.558,154578000.0
936.753,155034000.0
937.143,154597000.0
937.148,154566000.0
937.198,154203000.0
937.298,153079000.0
937.398,151312000.0
937.498,148868000.0
937.544,147643000.0
937.636,145747000.0
937.642,145685000.0
937.692,145600000.0
937.741,145772000.0
937.766,145860000.0
937.791,145948000.0
937.797,145969000.0
937.803,145991000.0
937.809,146012000.0
937.815,146033000.0
937.84,146122000.0
937.865,146210000.0
937.915,146390000.0
937.964,146829000.0
938.013,147980000.0
938.062,149523000.0
938.16,152904000.0
938.356,158108000.0
938.458,159916000.0
938.56,161296000.0
938.764,163275000.0
938.853,163960000.0
939.031,165151000.0
939.388,167161000.0
940.102,170719000.0
940.434,172297000.0
941.097,175427000.0
942.015,179765000.0
942.894,183967000.0
943.773,188225000.0
944.625,192405000.0
945.478,196639000.0
947.079,204611000.0
947.88,208334000.0
948.68,210361000.0
948.88,209802000.0
949.08,208030000.0
949.28,203692000.0
949.48,196473000.0
949.58,193800000.0
949.63,193733000.0
949.68,193960000.0
949.705,194074000.0
949.73,194188000.0
949.737,194220000.0
949.743,194248000.0
949.749,194276000.0
949.755,194303000.0
949.781,194422000.0
949.806,194537000.0
949.856,194768000.0
949.906,195297000.0
949.956,196825000.0
950.006,198922000.0
950.056,201323000.0
950.156,206088000.0
950.256,210163000.0
950.356,213440000.0
950.406,214773000.0
950.506,216998000.0
950.707,220313000.0
950.806,221611000.0
951.005,223773000.0
951.402,227096000.0
952.197,232405000.0
952.407,233710000.0
952.827,236282000.0
953.666,241366000.0
954.008,243440000.0
954.692,247618000.0
955.609,253299000.0
957.211,263469000.0
958.812,273971000.0
960.413,284832000.0
960.776,287350000.0
961.14,289893000.0
961.376,291552000.0
961.611,293214000.0
962.081,296563000.0
963.021,303366000.0
963.251,305050000.0
963.71,308442000.0
964.629,315331000.0
964.89,317313000.0
965.412,321312000.0
966.456,329448000.0
966.53,330032000.0
966.678,331203000.0
966.975,333557000.0
967.567,338310000.0
968.169,343196000.0
969.372,353158000.0
969.809,356837000.0
970.683,364293000.0
971.448,370884000.0
971.858,374322000.0
972.268,377670000.0
972.37,378490000.0
972.473,379320000.0
972.499,379530000.0
972.524,379731000.0
972.531,379788000.0
972.537,379836000.0
972.543,379885000.0
972.55,379941000.0
972.575,380143000.0
972.601,380352000.0
972.653,380772000.0
972.703,381198000.0
972.803,382057000.0
972.806,382084000.0
972.856,382514000.0
972.956,383375000.0
973.156,385103000.0
973.216,385622000.0
973.336,386674000.0
973.576,388930000.0
973.626,389402000.0
973.726,390347000.0
973.926,392245000.0
974.326,396118000.0
975.126,403967000.0
975.265,405346000.0
975.544,408089000.0
976.101,413604000.0
976.905,421599000.0
978.512,437982000.0
978.544,438311000.0
978.608,438970000.0
978.735,440289000.0
978.989,442936000.0
979.498,448272000.0
980.184,455565000.0
981.556,470439000.0
981.823,473378000.0
982.357,479309000.0
983.424,491377000.0
983.463,491818000.0
983.54,492702000.0
983.694,494474000.0
984.003,498036000.0
984.62,505234000.0
985.102,510914000.0
986.065,522449000.0
986.742,530698000.0
988.095,547570000.0
988.381,551198000.0
988.953,558524000.0
990.021,572456000.0
991.66,594465000.0
993.3,617310000.0
996.58,665471000.0
996.65,666536000.0
996.79,668672000.0
997.07,672963000.0
997.63,681625000.0
998.75,699264000.0
1000.0,719435000.0
1001.912,751320000.0
1003.824,784523000.0
1005.553,815693000.0
1007.282,847975000.0
1009.011,881418000.0
1010.74,916033000.0
1012.469,951820000.0
1014.199,988738000.0
1015.928,1026600000.0
1017.657,1065000000.0
1019.386,1102750000.0
1021.115,1136080000.0
1021.979,1147510000.0
1022.844,1149810000.0
1023.708,1135950000.0
1024.573,1107580000.0
1024.624,1105620000.0
1024.674,1103770000.0
1024.724,1101880000.0
1024.774,1099900000.0
1024.824,1097750000.0
1024.874,1095410000.0
1024.924,1092960000.0
1024.974,1090280000.0
1025.006,1088540000.0
1025.069,1084540000.0
1025.196,1073270000.0
1025.317,1055870000.0
1025.438,1031940000.0
1025.546,1010650000.0
1025.6,1005180000.0
1025.654,1004840000.0
1025.681,1005380000.0
1025.708,1005920000.0
1025.715,1006050000.0
1025.72,1006150000.0
1025.722,1006200000.0
1025.729,1006330000.0
1025.736,1006470000.0
1025.763,1007010000.0
1025.79,1007550000.0
1025.844,1009230000.0
1025.898,1015310000.0
1025.952,1026220000.0
1026.005,1039600000.0
1026.056,1052730000.0
1026.106,1065040000.0
1026.156,1076180000.0
1026.206,1086280000.0
1026.256,1095060000.0
1026.306,1102670000.0
1026.356,1109370000.0
1026.406,1115300000.0
1026.438,1118800000.0
1026.501,1125050000.0
1026.628,1137100000.0
1026.87,1157620000.0
1027.355,1196970000.0
1028.324,1272620000.0
1028.6,1291260000.0
1029.152,1323180000.0
1030.257,1375210000.0
1030.329,1378270000.0
1030.474,1384360000.0
1030.763,1396380000.0
1031.341,1419800000.0
1032.058,1447100000.0
1033.493,1497950000.0
1033.787,1508190000.0
1034.376,1528360000.0
1035.516,1567460000.0
1037.246,1629500000.0
1038.975,1692350000.0
1040.704,1756060000.0
1042.433,1821650000.0
1044.162,1889260000.0
1045.892,1959150000.0
1047.621,2031240000.0
1048.81,2082150000.0
1050.0,2134270000.0
1052.38,2241390000.0
1055.0,2364680000.0
1057.62,2493940000.0
1060.0,2616920000.0
1064.76,2880270000.0
1065.0,2894160000.0
1065.48,2922090000.0
1066.441,2978650000.0
1068.363,3094670000.0
1070.0,3196450000.0
1073.273,3408220000.0
1075.0,3524180000.0
1078.453,3767280000.0
1080.0,3881410000.0
1081.538,3997900000.0
1083.077,4117400000.0
1086.155,4365530000.0
1086.538,4397300000.0
1087.304,4461390000.0
1088.835,4592120000.0
1090.0,4693820000.0
1092.33,4903180000.0
1095.0,5153030000.0
1097.67,5413910000.0
1100.0,5649650000.0
1104.661,6147600000.0
1105.0,6185300000.0
1105.679,6261260000.0
1107.036,6415630000.0
1109.751,6732800000.0
1110.0,6762540000.0
1110.498,6822330000.0
1111.494,6943170000.0
1113.486,7189990000.0
1115.0,7382360000.0
1118.027,7778720000.0
1120.0,8044600000.0
1123.945,8593640000.0
1125.0,8744090000.0
1127.109,9047100000.0
1130.0,9465540000.0
1131.154,9633910000.0
1132.308,9800770000.0
1134.616,10132400000.0
1136.154,10347900000.0
1139.23,10763500000.0
1140.0,10860800000.0
1141.539,11054500000.0
1144.617,11416800000.0
1145.0,11461200000.0
1145.766,11539400000.0
1147.297,11698900000.0
1150.0,11955900000.0
1152.703,12187500000.0
1155.406,12383800000.0
1158.109,12553800000.0
1160.812,12730400000.0
1163.516,12917300000.0
1165.769,13113900000.0
1168.022,13356300000.0
1170.276,13646000000.0
1174.783,14343800000.0
1179.29,15169600000.0
1181.538,15620000000.0
1185.628,16498700000.0
1189.718,17435700000.0
1191.767,17916700000.0
1193.816,18399900000.0
1195.866,18882400000.0
1197.915,19365300000.0
1199.964,19850700000.0
1202.014,20337500000.0
1204.063,20813900000.0
1206.113,21251100000.0
1208.162,21597000000.0
1210.211,21834400000.0
1212.261,22022600000.0
1214.31,22384300000.0
1214.822,22518800000.0
1215.335,22638600000.0
1215.463,22634800000.0
1215.591,22639300000.0
1215.623,22649200000.0
1215.655,22658900000.0
1215.663,22661300000.0
1215.67,22663500000.0
1215.679,22666300000.0
1215.687,22668700000.0
1215.719,22678500000.0
1215.751,22688300000.0
1215.815,22717200000.0
1215.879,22770800000.0
1216.007,22878000000.0
1216.263,23046900000.0
1216.52,23221300000.0
1217.032,23581700000.0
1218.056,24405400000.0
1219.081,25205900000.0
1220.106,25912800000.0
1221.131,26493300000.0
1221.181,26522200000.0
1221.231,26551700000.0
1221.281,26581300000.0
1221.331,26611200000.0
1221.381,26641400000.0
1221.431,26671700000.0
1221.481,26702200000.0
1221.531,26726700000.0
1221.581,26747500000.0
1221.631,26768300000.0
1221.682,26789100000.0
1221.732,26809900000.0
1221.782,26830700000.0
1221.832,26851500000.0
1221.882,26872400000.0
1221.932,26893300000.0
1221.982,26914200000.0
1222.032,26935300000.0
1222.082,26956500000.0
1222.132,26977800000.0
1222.182,26999100000.0
1222.232,27020400000.0
1222.282,27041800000.0
1222.332,27063200000.0
1222.382,27084600000.0
1222.432,27106100000.0
1222.482,27127600000.0
1222.532,27151800000.0
1222.582,27177500000.0
1222.632,27203400000.0
1222.682,27229400000.0
1222.733,27255600000.0
1222.783,27281900000.0
1222.833,27308200000.0
1222.883,27334700000.0
1222.933,27361400000.0
1222.983,27388200000.0
1223.033,27413700000.0
1223.083,27438500000.0
1223.133,27463200000.0
1223.18,27486600000.0
1223.274,27533800000.0
1223.463,27629400000.0
1223.84,27814900000.0
1224.594,28171100000.0
1225.229,28453700000.0
1226.5,28981200000.0
1227.279,29292000000.0
1228.838,29931800000.0
1229.328,30137100000.0
1230.309,30559800000.0
1231.378,31022000000.0
1233.427,31923300000.0
1235.476,32834300000.0
1237.526,33757500000.0
1239.575,34685100000.0
1241.625,35630300000.0
1245.725,37599400000.0
1249.825,39673400000.0
1250.812,40175900000.0
1252.786,41227700000.0
1256.733,43385800000.0
1260.0,45290500000.0
1263.267,47340300000.0
1265.0,48446600000.0
1268.466,50655800000.0
1270.0,51693700000.0
1273.068,53813700000.0
1275.0,55156700000.0
1278.863,58090600000.0
1280.0,58961900000.0
1282.273,60702300000.0
1285.0,62730000000.0
1287.727,64852800000.0
1290.0,66683100000.0
1294.547,70593000000.0
1295.0,71003100000.0
1295.906,71831200000.0
1297.719,73491300000.0
1300.0,75584200000.0
1305.0,80152800000.0
1310.0,84950300000.0
1315.0,90017100000.0
1320.0,95351400000.0
1325.0,100979000000.0
1330.0,106940000000.0
1335.0,113204000000.0
1340.0,119704000000.0
1345.0,126451000000.0
1350.0,133531000000.0
1355.0,141022000000.0
1360.0,148784000000.0
1365.0,156915000000.0
1370.0,165468000000.0
1374.231,172934000000.0
1378.462,180651000000.0
1379.231,182087000000.0
1380.0,183534000000.0
1381.538,186460000000.0
1384.614,192431000000.0
1385.0,193190000000.0
1385.771,194716000000.0
1387.314,197795000000.0
1390.0,203248000000.0
1395.0,213739000000.0
1400.0,224687000000.0
1405.0,236126000000.0
1410.0,248111000000.0
1415.0,260595000000.0
1420.0,273522000000.0
1425.0,286977000000.0
1430.0,300984000000.0
1435.0,315424000000.0
1440.0,330230000000.0
1445.0,345499000000.0
1450.0,361303000000.0
1455.0,377639000000.0
1460.0,394583000000.0
1465.0,412142000000.0
1470.0,430628000000.0
1473.462,443969000000.0
1476.923,457759000000.0
1478.462,464046000000.0
1480.0,470439000000.0
1483.076,483545000000.0
1485.0,491966000000.0
1488.848,509262000000.0
1490.0,514534000000.0
1492.304,525173000000.0
1495.0,537703000000.0
1500.0,561070000000.0
1505.0,584836000000.0
1510.0,609712000000.0
1515.0,636227000000.0
1520.0,664021000000.0
1525.0,691678000000.0
1530.0,717728000000.0
1535.0,742145000000.0
1540.0,766436000000.0
1545.0,792281000000.0
1550.0,820548000000.0
1555.0,851157000000.0
1560.0,883227000000.0
1565.0,915461000000.0
1570.0,946910000000.0
1572.692,963503000000.0
1575.385,979981000000.0
1577.692,994182000000.0
1580.0,1008590000000.0
1584.616,1038430000000.0
1585.0,1041020000000.0
1585.768,1046200000000.0
1587.304,1056750000000.0
1590.0,1075900000000.0
1595.0,1113920000000.0
1600.0,1155540000000.0
1605.0,1201190000000.0
1610.0,1251270000000.0
1615.0,1306220000000.0
1620.0,1366460000000.0
1625.0,1432330000000.0
1630.0,1503880000000.0
1635.0,1580990000000.0
1640.0,1663400000000.0
1645.0,1750710000000.0
1650.0,1842540000000.0
1655.0,1938050000000.0
1660.0,2038220000000.0
1665.0,2142760000000.0
1670.0,2252270000000.0
1671.923,2295340000000.0
1673.846,2339950000000.0
1676.923,2414010000000.0
1680.0,2491470000000.0
1685.0,2625970000000.0
1690.0,2776890000000.0
1695.0,2948670000000.0
1697.5,3043910000000.0
1700.0,3154210000000.0
1705.0,3396950000000.0
1707.5,3538560000000.0
1710.0,3697760000000.0
1712.5,3872440000000.0
1715.0,4067960000000.0
1720.0,4501410000000.0
1722.5,4744260000000.0
1725.0,5013810000000.0
1727.5,5302020000000.0
1730.0,5615250000000.0
1735.0,6269140000000.0
1737.5,6619950000000.0
1740.0,7002900000000.0
1745.0,7786220000000.0
1750.0,8635220000000.0
1755.0,9509600000000.0
1761.154,10597500000000.0
1772.308,12629500000000.0
1783.462,14672500000000.0
1794.616,16735200000000.0
1805.77,18795200000000.0
1816.924,20876800000000.0
1821.539,21754400000000.0
1830.769,23540100000000.0
1849.23,27285700000000.0
1867.691,31330200000000.0
1870.769,32038100000000.0
1876.925,33476800000000.0
1889.236,36474500000000.0
1901.547,39629000000000.0
1913.858,42945800000000.0
1920.0,44666800000000.0
1932.285,48239500000000.0
1944.569,51993700000000.0
1956.854,55922400000000.0
1969.139,60034400000000.0
1969.231,60066100000000.0
1969.731,60237900000000.0
1970.731,60582000000000.0
1972.731,61269300000000.0
1976.731,62663600000000.0
1984.731,65506300000000.0
2000.731,71377400000000.0
2016.731,77449500000000.0
2018.462,78138400000000.0
2021.924,79509200000000.0
2028.849,82248100000000.0
2042.697,87997700000000.0
2056.546,94019100000000.0
2067.692,99115700000000.0
2078.838,104463000000000.0
2089.984,109999000000000.0
2101.13,115814000000000.0
2112.276,121706000000000.0
2116.923,124255000000000.0
2126.218,129312000000000.0
2144.806,139568000000000.0
2163.395,149663000000000.0
2166.154,151066000000000.0
2171.672,153903000000000.0
2182.707,159571000000000.0
2193.742,164819000000000.0
2204.777,170030000000000.0
2215.385,174888000000000.0
2225.993,179810000000000.0
2236.601,184799000000000.0
2247.209,189990000000000.0
2257.817,195345000000000.0
2264.615,198945000000000.0
2278.212,206439000000000.0
2291.808,214665000000000.0
2305.405,223633000000000.0
2313.846,229779000000000.0
2330.728,243569000000000.0
2347.61,259621000000000.0
2363.077,276454000000000.0
2378.544,295308000000000.0
2394.011,315436000000000.0
2409.479,336397000000000.0
2412.307,340285000000000.0
2417.963,348244000000000.0
2429.276,363178000000000.0
2440.588,378382000000000.0
2451.901,391761000000000.0
2461.538,403346000000000.0
2480.813,423540000000000.0
2500.088,440893000000000.0
2510.769,449171000000000.0
2521.45,457335000000000.0
2532.131,464476000000000.0
2542.812,471458000000000.0
2553.494,477787000000000.0
2560.0,481642000000000.0
2573.013,488626000000000.0
2586.025,495338000000000.0
2599.038,501720000000000.0
2612.051,507740000000000.0
2625.063,513582000000000.0
2638.076,519206000000000.0
2651.089,524627000000000.0
2658.461,527656000000000.0
2673.205,533505000000000.0
2687.949,539556000000000.0
2702.693,545681000000000.0
2717.438,550978000000000.0
2732.182,556126000000000.0
2746.926,561195000000000.0
2756.923,564589000000000.0
2776.918,571232000000000.0
2796.912,577728000000000.0
2816.907,584076000000000.0
2836.902,590276000000000.0
2855.385,595874000000000.0
2873.868,601316000000000.0
2892.352,606628000000000.0
2910.835,611811000000000.0
2929.319,616864000000000.0
2945.1,621076000000000.0
2953.846,623370000000000.0
2971.338,627843000000000.0
2988.829,632200000000000.0
3006.321,636443000000000.0
3023.813,640570000000000.0
3041.304,644583000000000.0
3052.308,647050000000000.0
3063.312,649462000000000.0
3074.315,651829000000000.0
3085.319,654152000000000.0
3096.323,656430000000000.0
3107.326,658664000000000.0
3118.33,660854000000000.0
3129.334,663000000000000.0
3140.337,665102000000000.0
3150.769,667054000000000.0
3161.201,668968000000000.0
3171.632,670843000000000.0
3182.064,672680000000000.0
3187.7,673656000000000.0
3198.972,675574000000000.0
3210.244,677448000000000.0
3221.516,679278000000000.0
3232.788,681064000000000.0
3244.06,682804000000000.0
3249.231,683588000000000.0
3259.573,685130000000000.0
3269.916,686635000000000.0
3280.258,688104000000000.0
3290.6,689537000000000.0
3300.942,690934000000000.0
3311.285,692295000000000.0
3321.627,693621000000000.0
3331.969,694912000000000.0
3342.312,696168000000000.0
3347.692,696808000000000.0
3358.453,698062000000000.0
3369.213,699278000000000.0
3379.974,700456000000000.0
3390.735,701597000000000.0
3401.496,702702000000000.0
3412.256,703770000000000.0
3423.017,704802000000000.0
3433.778,705798000000000.0
3444.539,706759000000000.0
3446.154,706900000000000.0
3449.385,707180000000000.0
3455.847,707730000000000.0
3468.771,708793000000000.0
3481.695,709806000000000.0
3494.618,710770000000000.0
3507.542,711685000000000.0
3520.466,712553000000000.0
3533.39,713372000000000.0
3544.615,714043000000000.0
3555.84,714679000000000.0
3567.065,715280000000000.0
3578.29,715847000000000.0
3589.515,716380000000000.0
3595.868,716666000000000.0
3608.573,717201000000000.0
3621.278,717694000000000.0
3633.983,718145000000000.0
3646.5,718548000000000.0
3647.0,718564000000000.0
3647.12,718567000000000.0
3647.22,716974000000000.0
3647.42,716981000000000.0
3647.819,716996000000000.0
3648.0,717002000000000.0
3648.362,717015000000000.0
3649.085,717042000000000.0
3650.533,717094000000000.0
3653.427,717197000000000.0
3659.216,717395000000000.0
3665.005,717585000000000.0
3668.675,717701000000000.0
3676.014,717924000000000.0
3682.807,718118000000000.0
3686.832,718228000000000.0
3690.13,718314000000000.0
3691.554,718350000000000.0
3694.402,718422000000000.0
3696.486,718473000000000.0
3697.152,718489000000000.0
3698.484,718521000000000.0
3701.148,718585000000000.0
3702.843,718624000000000.0
3703.853,718646000000000.0
3705.0,718673000000000.0
3707.294,718723000000000.0
3709.2,718764000000000.0
3711.971,718820000000000.0
3715.556,718894000000000.0
3721.913,719011000000000.0
3721.938,719011000000000.0
3721.988,719012000000000.0
3722.038,719014000000000.0
3722.088,719015000000000.0
3722.138,719015000000000.0
3722.188,719017000000000.0
3722.238,719017000000000.0
3722.288,719019000000000.0
3722.338,719020000000000.0
3722.388,719021000000000.0
3722.438,719022000000000.0
3722.489,719023000000000.0
3722.539,719025000000000.0
3722.589,719025000000000.0
3722.639,719026000000000.0
3722.689,719027000000000.0
3722.739,719028000000000.0
