Wavelength,Flux
900.0,19429900.0
903.442,21368400.0
904.998,22301300.0
906.554,23271100.0
908.11,24279200.0
909.667,25327600.0
910.703,26047900.0
911.74,26787500.0
911.84,26859800.0
912.0,26975900.0
912.31,27202100.0
912.779,27547600.0
913.717,28250700.0
914.335,28795900.0
915.329,29497100.0
915.824,29889800.0
915.892,29944200.0
915.96,30079300.0
916.028,30726900.0
916.096,31196600.0
916.164,31287000.0
916.232,30927100.0
916.3,30320700.0
916.365,30324200.0
916.429,30376300.0
916.558,30536300.0
916.622,31438500.0
916.686,32440500.0
916.751,33173100.0
916.815,33486600.0
916.879,33341500.0
916.944,32627400.0
917.072,30904900.0
917.127,30946200.0
917.181,30990900.0
917.29,31084300.0
917.329,31364800.0
917.369,32272800.0
917.408,33326100.0
917.448,34370500.0
917.498,35580000.0
917.548,36492200.0
917.598,37174500.0
917.648,37560700.0
917.698,37646800.0
917.748,37395400.0
917.798,36731900.0
917.848,35672000.0
917.898,34229100.0
917.948,32719100.0
917.998,31746200.0
918.048,31713400.0
918.098,31755500.0
918.129,31781900.0
918.191,31834500.0
918.223,31860900.0
918.254,31926000.0
918.285,32335900.0
918.316,33347400.0
918.347,34527100.0
918.379,35817600.0
918.441,38468600.0
918.503,40745200.0
918.566,42566000.0
918.628,43922900.0
918.69,44853700.0
918.753,45359800.0
918.815,45377900.0
918.878,44824900.0
918.94,43625100.0
918.972,42697100.0
919.004,41571600.0
919.036,40253500.0
919.068,38750800.0
919.132,35593600.0
919.164,34226200.0
919.196,33103700.0
919.228,32747000.0
919.26,32749800.0
919.324,32805400.0
919.351,32828400.0
919.404,32874600.0
919.457,32922200.0
919.51,33512700.0
919.537,34592400.0
919.563,35863100.0
919.59,37343200.0
919.617,38971400.0
919.67,42382000.0
919.723,45619600.0
919.776,48552500.0
919.829,51092200.0
919.882,53239200.0
919.935,55048800.0
919.988,56530100.0
920.041,57689900.0
920.094,58578300.0
920.148,59184600.0
920.201,59490800.0
920.254,59465600.0
920.307,59065500.0
920.36,58238300.0
920.413,56886200.0
920.466,54934300.0
920.519,52423700.0
920.56,50072700.0
920.61,46816200.0
920.66,43256800.0
920.71,39638000.0
920.76,36608500.0
920.81,34492700.0
920.86,34164300.0
920.91,34209100.0
920.963,34257000.0
921.069,34354000.0
921.096,34449800.0
921.122,34942200.0
921.149,36128200.0
921.175,37569000.0
921.202,39291700.0
921.229,41256400.0
921.255,43400400.0
921.282,45560400.0
921.335,50005100.0
921.441,58372700.0
921.494,62146100.0
921.547,65506400.0
921.6,68600500.0
921.653,71317200.0
921.76,76032700.0
921.813,77987000.0
921.866,79628100.0
921.972,82157600.0
922.025,83010900.0
922.078,83576600.0
922.117,83748600.0
922.195,83572400.0
922.273,82603900.0
922.311,81787200.0
922.35,80728000.0
922.428,77843800.0
922.467,75951600.0
922.506,73820300.0
922.556,70674700.0
922.606,67149300.0
922.656,63148400.0
922.706,58874200.0
922.806,49846900.0
922.895,42180100.0
922.94,39149700.0
922.984,36858900.0
922.992,36603900.0
923.042,36183600.0
923.089,36227400.0
923.114,36251300.0
923.138,36274100.0
923.144,36279800.0
923.15,36285500.0
923.156,36291200.0
923.162,36296900.0
923.187,36320700.0
923.211,36343600.0
923.261,36392800.0
923.308,36907200.0
923.358,39432900.0
923.405,42764000.0
923.455,47159300.0
923.505,51929000.0
923.555,56875800.0
923.655,67125800.0
923.755,77144200.0
923.794,80984600.0
923.872,88321800.0
923.95,95182200.0
924.028,101407000.0
924.106,106987000.0
924.183,111837000.0
924.26,115949000.0
924.338,119497000.0
924.436,123294000.0
924.534,126294000.0
924.633,128468000.0
924.688,129308000.0
924.798,130090000.0
924.908,129583000.0
924.939,129182000.0
925.0,128011000.0
925.061,126341000.0
925.122,124125000.0
925.189,121049000.0
925.256,117196000.0
925.322,112459000.0
925.389,106907000.0
925.455,100581000.0
925.522,93562600.0
925.579,87252700.0
925.694,74321600.0
925.808,61615800.0
925.923,49955200.0
925.97,45659000.0
926.02,42043900.0
926.067,39637500.0
926.117,39212500.0
926.165,39261100.0
926.189,39285700.0
926.214,39311300.0
926.22,39317300.0
926.226,39323600.0
926.232,39329700.0
926.238,39335800.0
926.263,39361500.0
926.287,39386100.0
926.337,39438200.0
926.385,39967100.0
926.435,42692600.0
926.482,46268700.0
926.532,51026300.0
926.582,56217000.0
926.632,61685800.0
926.682,67438900.0
926.732,73479000.0
926.832,85953400.0
926.873,91261900.0
926.955,102054000.0
927.119,122785000.0
927.191,131211000.0
927.263,138946000.0
927.407,153062000.0
927.478,159262000.0
927.55,165095000.0
927.694,175310000.0
927.837,183773000.0
927.875,185759000.0
927.951,189484000.0
928.102,195768000.0
928.253,200225000.0
928.404,203039000.0
928.487,203984000.0
928.653,204541000.0
928.819,203197000.0
928.902,201740000.0
928.985,199686000.0
929.097,195876000.0
929.209,190813000.0
929.32,184373000.0
929.432,176304000.0
929.543,166794000.0
929.599,161416000.0
929.655,155579000.0
929.706,149950000.0
929.808,137868000.0
929.859,131282000.0
929.911,124511000.0
930.013,110530000.0
930.098,98692000.0
930.183,87191300.0
930.268,76201000.0
930.353,65866500.0
930.439,56348400.0
930.465,53644800.0
930.491,51071600.0
930.517,48818200.0
930.543,46955400.0
930.589,44477500.0
930.639,44086500.0
930.687,44141100.0
930.711,44168300.0
930.736,44196900.0
930.742,44203600.0
930.748,44210500.0
930.754,44217400.0
930.76,44224100.0
930.785,44252600.0
930.809,44280000.0
930.859,44337200.0
930.907,44843300.0
930.957,47772300.0
931.005,51755000.0
931.055,56996000.0
931.105,62705900.0
931.155,68759000.0
931.205,75144900.0
931.255,81843800.0
931.355,95845200.0
931.398,102169000.0
931.484,115204000.0
931.657,141065000.0
931.79,159734000.0
931.923,177067000.0
932.057,192790000.0
932.19,206893000.0
932.324,219490000.0
932.457,230662000.0
932.591,240646000.0
932.724,249565000.0
932.857,257565000.0
933.033,266575000.0
933.209,274336000.0
933.384,280967000.0
933.56,286632000.0
933.911,295121000.0
934.087,298115000.0
934.263,300302000.0
934.276,300427000.0
934.326,300853000.0
934.426,301502000.0
934.626,301961000.0
934.826,301203000.0
935.026,299034000.0
935.226,295101000.0
935.426,289538000.0
935.514,286361000.0
935.69,278654000.0
935.866,269028000.0
936.042,257049000.0
936.218,242681000.0
936.393,225411000.0
936.569,205003000.0
936.745,181317000.0
936.753,180223000.0
936.803,172955000.0
936.903,157491000.0
937.003,141217000.0
937.103,124596000.0
937.148,117190000.0
937.238,102811000.0
937.328,89150800.0
937.419,76479000.0
937.481,68277900.0
937.544,60886300.0
937.593,56377200.0
937.642,53215900.0
937.691,52793600.0
937.74,52859200.0
937.766,52893900.0
937.791,52927400.0
937.797,52935400.0
937.803,52943400.0
937.809,52951600.0
937.815,52959700.0
937.84,52993200.0
937.865,53026800.0
937.915,53094000.0
937.964,53653900.0
938.014,57062000.0
938.062,61692100.0
938.112,67796400.0
938.162,74424600.0
938.212,81490000.0
938.262,88956900.0
938.362,104786000.0
938.458,121081000.0
938.554,138232000.0
938.65,155441000.0
938.842,188329000.0
938.853,190062000.0
938.903,198139000.0
939.003,213476000.0
939.103,227999000.0
939.203,241467000.0
939.303,254035000.0
939.503,276762000.0
939.703,296616000.0
939.903,313924000.0
940.103,329140000.0
940.303,342609000.0
940.434,350512000.0
940.696,364939000.0
940.958,377685000.0
941.22,389288000.0
941.744,408595000.0
942.015,416938000.0
942.556,430926000.0
942.894,437955000.0
943.57,449756000.0
943.773,452202000.0
944.18,455826000.0
944.625,457799000.0
945.052,457396000.0
945.478,454251000.0
945.905,447827000.0
946.331,437619000.0
946.705,425384000.0
947.079,408688000.0
947.266,398471000.0
947.453,386310000.0
947.64,372081000.0
947.827,355408000.0
948.014,335829000.0
948.108,324955000.0
948.201,313059000.0
948.295,300210000.0
948.388,286404000.0
948.482,271289000.0
948.575,255375000.0
948.669,238157000.0
948.68,236022000.0
948.73,226495000.0
948.83,206328000.0
948.93,185300000.0
949.08,153451000.0
949.155,138175000.0
949.23,123577000.0
949.305,109674000.0
949.38,96703300.0
949.418,90578200.0
949.455,84861400.0
949.48,81319800.0
949.53,75525300.0
949.58,71587000.0
949.63,71149700.0
949.68,71237300.0
949.705,71281300.0
949.73,71325100.0
949.737,71337500.0
949.743,71348000.0
949.749,71358700.0
949.755,71369200.0
949.781,71414900.0
949.806,71459000.0
949.856,71547100.0
949.906,72164300.0
949.956,76320000.0
950.006,82373600.0
950.056,90074800.0
950.106,98453600.0
950.156,107386000.0
950.206,116845000.0
950.306,136908000.0
950.406,158356000.0
950.456,169600000.0
950.556,192544000.0
950.756,237529000.0
950.806,248102000.0
950.906,268777000.0
951.006,288131000.0
951.106,306637000.0
951.206,323766000.0
951.307,339861000.0
951.507,368956000.0
951.707,394748000.0
951.907,417407000.0
952.107,437551000.0
952.307,455534000.0
952.407,463777000.0
952.606,479331000.0
953.004,506958000.0
953.402,531623000.0
953.8,553669000.0
954.008,564210000.0
954.424,584105000.0
955.257,621749000.0
955.609,636574000.0
956.313,667344000.0
957.211,702906000.0
958.109,738681000.0
958.812,765767000.0
960.218,822196000.0
960.413,829891000.0
960.776,849950000.0
961.139,865973000.0
961.14,866013000.0
961.19,868302000.0
961.29,872882000.0
961.376,876709000.0
961.548,884516000.0
961.611,887288000.0
961.737,892416000.0
961.989,902991000.0
962.494,924770000.0
963.251,959158000.0
964.766,1026050000.0
964.89,1031640000.0
965.139,1043170000.0
965.637,1064810000.0
966.53,1096400000.0
967.423,1124190000.0
967.796,1126580000.0
968.169,1127170000.0
968.542,1124460000.0
968.915,1117010000.0
969.661,1091560000.0
969.809,1085720000.0
970.105,1073460000.0
970.697,1046960000.0
970.885,1036080000.0
971.073,1026710000.0
971.167,1022650000.0
971.26,1018880000.0
971.307,1017100000.0
971.354,1008850000.0
971.401,988678000.0
971.448,972548000.0
971.542,948210000.0
971.635,929858000.0
971.729,914980000.0
971.858,899486000.0
971.987,887089000.0
972.115,865997000.0
972.244,849383000.0
972.268,846675000.0
972.318,841303000.0
972.37,836067000.0
972.473,826415000.0
972.499,824138000.0
972.524,822004000.0
972.531,821413000.0
972.537,820912000.0
972.543,820409000.0
972.55,819833000.0
972.575,817790000.0
972.601,815712000.0
972.653,811662000.0
972.703,810173000.0
972.803,808068000.0
972.806,808005000.0
972.856,806989000.0
972.956,805015000.0
973.156,801402000.0
973.216,800418000.0
973.336,799439000.0
973.456,804793000.0
973.576,810210000.0
973.626,812497000.0
973.726,817236000.0
973.926,826937000.0
974.326,852369000.0
974.726,881128000.0
975.265,920479000.0
976.344,994328000.0
976.905,1030680000.0
977.466,1071910000.0
978.028,1125200000.0
978.544,1174420000.0
979.06,1228670000.0
979.576,1300530000.0
979.88,1361210000.0
980.184,1430810000.0
980.488,1512690000.0
980.792,1600180000.0
981.096,1668630000.0
981.399,1744040000.0
981.611,1777620000.0
981.823,1813570000.0
982.247,1882040000.0
983.094,2004920000.0
983.463,2056000000.0
984.202,2171800000.0
984.94,2297980000.0
985.102,2323300000.0
985.426,2376530000.0
986.074,2470870000.0
986.742,2580650000.0
988.079,2806860000.0
988.23,2813240000.0
988.381,2819340000.0
988.683,2825090000.0
988.985,2847050000.0
989.287,2884820000.0
989.891,2936480000.0
990.021,2944790000.0
990.281,2949930000.0
990.541,2932240000.0
990.801,2909510000.0
991.061,2898780000.0
991.321,2894490000.0
991.66,2901090000.0
991.999,2941630000.0
992.338,2992160000.0
992.677,3068570000.0
993.016,3152860000.0
993.3,3251460000.0
993.584,3359600000.0
994.153,3606240000.0
994.437,3726140000.0
994.721,3796780000.0
995.006,3869490000.0
995.29,3875360000.0
995.859,3893730000.0
996.254,3931030000.0
996.65,4027630000.0
996.848,4100640000.0
997.046,4175990000.0
997.243,4283490000.0
997.441,4410820000.0
997.837,4706040000.0
998.233,5035940000.0
998.628,5365640000.0
999.024,5629420000.0
999.419,5803230000.0
999.565,5849050000.0
999.71,5896070000.0
999.746,6805470000.0
999.782,6818190000.0
999.818,6830880000.0
999.855,6843040000.0
999.891,6855340000.0
999.927,6853390000.0
999.964,6850770000.0
1000.0,6848630000.0
1000.05,6847930000.0
1000.15,6846190000.0
1000.35,6842240000.0
1000.55,6825590000.0
1000.75,6750520000.0
1000.95,6674560000.0
1001.15,6576850000.0
1001.35,6470450000.0
1001.55,6359190000.0
1001.75,6262290000.0
1001.912,6185630000.0
1002.236,6031530000.0
1002.884,5704890000.0
1003.824,5241360000.0
1004.688,4858110000.0
1005.553,4517460000.0
1006.417,4217820000.0
1007.282,3955250000.0
1008.146,3720940000.0
1009.011,3519530000.0
1009.875,3342750000.0
1010.74,3184870000.0
1011.604,3047500000.0
1012.469,2927880000.0
1013.333,2823320000.0
1014.198,2731650000.0
1014.249,2726630000.0
1014.349,2717030000.0
1014.549,2698360000.0
1014.749,2680080000.0
1014.949,2663230000.0
1015.149,2646160000.0
1015.349,2630000000.0
1015.549,2614800000.0
1015.749,2599870000.0
1015.928,2587590000.0
1016.286,2562920000.0
1017.002,2518430000.0
1017.657,2480220000.0
1018.968,2409780000.0
1019.386,2384780000.0
1020.223,2332440000.0
1021.115,2263010000.0
1021.561,2218530000.0
1022.007,2161870000.0
1022.426,2095950000.0
1022.844,2011400000.0
1023.053,1962870000.0
1023.262,1902700000.0
1023.472,1839540000.0
1023.681,1755040000.0
1023.89,1665460000.0
1024.099,1553740000.0
1024.309,1424580000.0
1024.518,1288210000.0
1024.574,1244010000.0
1024.63,1200370000.0
1024.742,1112920000.0
1024.855,1020790000.0
1024.967,924668000.0
1025.006,890215000.0
1025.084,822710000.0
1025.24,681148000.0
1025.395,537588000.0
1025.438,499978000.0
1025.481,465267000.0
1025.523,434782000.0
1025.546,421923000.0
1025.596,403085000.0
1025.646,397603000.0
1025.654,397537000.0
1025.681,397703000.0
1025.708,397925000.0
1025.715,397983000.0
1025.72,398024000.0
1025.722,398042000.0
1025.729,398099000.0
1025.736,398157000.0
1025.763,398380000.0
1025.79,398605000.0
1025.844,401481000.0
1025.871,407280000.0
1025.898,417171000.0
1025.925,431251000.0
1025.952,449006000.0
1025.979,469441000.0
1026.005,491916000.0
1026.056,537198000.0
1026.106,584186000.0
1026.156,632630000.0
1026.206,681512000.0
1026.256,730414000.0
1026.306,779112000.0
1026.356,827571000.0
1026.406,875353000.0
1026.438,904676000.0
1026.501,962732000.0
1026.628,1077870000.0
1026.749,1182870000.0
1026.87,1282570000.0
1026.92,1324050000.0
1026.97,1365510000.0
1027.02,1404200000.0
1027.07,1439150000.0
1027.12,1474150000.0
1027.17,1508980000.0
1027.22,1543080000.0
1027.27,1576810000.0
1027.32,1610740000.0
1027.37,1644630000.0
1027.421,1679090000.0
1027.471,1713910000.0
1027.521,1745210000.0
1027.571,1771050000.0
1027.621,1796830000.0
1027.671,1822410000.0
1027.721,1847640000.0
1027.771,1872580000.0
1027.821,1897850000.0
1027.871,1923150000.0
1027.921,1948390000.0
1027.971,1973350000.0
1028.021,1996270000.0
1028.071,2016550000.0
1028.121,2036870000.0
1028.171,2056850000.0
1028.221,2076670000.0
1028.271,2096350000.0
1028.321,2116180000.0
1028.371,2136060000.0
1028.422,2155940000.0
1028.472,2175630000.0
1028.522,2193650000.0
1028.572,2209340000.0
1028.6,2218110000.0
1028.657,2235600000.0
1028.77,2270950000.0
1028.996,2341200000.0
1029.45,2457370000.0
1029.903,2563430000.0
1030.329,2652990000.0
1031.182,2826250000.0
1032.058,3004040000.0
1032.922,3163320000.0
1033.787,3316780000.0
1035.516,3588460000.0
1035.948,3681910000.0
1036.38,3794250000.0
1036.813,3937680000.0
1037.245,4111780000.0
1037.296,4134280000.0
1037.346,4157160000.0
1037.396,4180730000.0
1037.446,4205030000.0
1037.496,4230100000.0
1037.546,4250410000.0
1037.596,4270700000.0
1037.646,4291440000.0
1037.696,4312630000.0
1037.746,4334300000.0
1037.797,4356460000.0
1037.847,4379130000.0
1037.897,4402340000.0
1037.947,4426130000.0
1037.997,4450530000.0
1038.047,4472410000.0
1038.097,4494520000.0
1038.147,4517110000.0
1038.197,4540170000.0
1038.247,4563750000.0
1038.297,4587850000.0
1038.347,4612490000.0
1038.397,4637650000.0
1038.447,4663400000.0
1038.497,4689790000.0
1038.547,4714230000.0
1038.597,4739010000.0
1038.647,4764340000.0
1038.697,4790220000.0
1038.747,4816680000.0
1038.797,4843730000.0
1038.848,4871420000.0
1038.898,4899750000.0
1038.948,4928780000.0
1038.975,4944960000.0
1039.03,4973880000.0
1039.139,5026240000.0
1039.358,5136270000.0
1039.795,5338750000.0
1040.67,5751330000.0
1040.704,5769390000.0
1040.771,5805920000.0
1040.906,5880610000.0
1041.176,6032920000.0
1041.715,6343600000.0
1042.433,6734850000.0
1043.87,7591640000.0
1044.162,7792140000.0
1044.747,8220500000.0
1045.319,8697150000.0
1045.892,9260230000.0
1047.037,10462600000.0
1047.621,10968500000.0
1048.205,11496000000.0
1048.508,11810200000.0
1048.81,12202300000.0
1049.415,13098000000.0
1050.0,13976200000.0
1050.585,14617300000.0
1051.17,15081100000.0
1051.755,15473700000.0
1052.34,15844800000.0
1052.925,16158300000.0
1053.51,16381600000.0
1054.68,16850200000.0
1055.0,17037600000.0
1055.641,17401300000.0
1056.281,17516100000.0
1056.922,17293300000.0
1058.203,16748500000.0
1058.523,16763000000.0
1058.844,16926300000.0
1059.164,17167600000.0
1059.484,17490200000.0
1059.742,17856900000.0
1060.0,18244000000.0
1060.258,18733000000.0
1060.516,19259200000.0
1060.773,19913500000.0
1061.031,20628400000.0
1061.289,21506500000.0
1061.547,22492900000.0
1061.805,23710400000.0
1062.062,25110300000.0
1062.32,26818300000.0
1062.578,28820300000.0
1062.836,31164500000.0
1063.094,33836100000.0
1063.352,36858500000.0
1063.609,40232100000.0
1063.867,43829400000.0
1064.125,47578000000.0
1064.641,55150400000.0
1065.0,60491300000.0
1065.359,65378100000.0
1065.719,70460300000.0
1066.078,75792500000.0
1066.438,81555800000.0
1066.797,87702100000.0
1067.156,94037000000.0
1067.516,100238000000.0
1067.875,104515000000.0
1068.234,106745000000.0
1068.594,106876000000.0
1068.773,105673000000.0
1068.953,104481000000.0
1069.133,102342000000.0
1069.312,99939800000.0
1069.672,94861400000.0
1070.0,90093100000.0
1070.328,85828500000.0
1070.656,82222800000.0
1070.984,79202200000.0
1071.312,77166000000.0
1071.641,75491500000.0
1071.969,74189100000.0
1072.625,71867200000.0
1072.953,70494000000.0
1073.281,68570600000.0
1073.609,66393500000.0
1073.938,63896900000.0
1074.594,58467200000.0
1075.0,55278100000.0
1075.406,52654700000.0
1075.812,50753200000.0
1076.219,49624800000.0
1076.625,49308100000.0
1076.828,49537200000.0
1077.031,49862800000.0
1077.234,50735700000.0
1077.438,51629300000.0
1077.641,52992900000.0
1077.844,54628500000.0
1078.047,56496800000.0
1078.25,59000100000.0
1078.453,61701800000.0
1078.656,65073800000.0
1078.859,68928900000.0
1079.062,73353500000.0
1079.266,78617400000.0
1079.469,84524000000.0
1079.672,91342000000.0
1079.875,99131600000.0
1080.0,104492000000.0
1080.125,110219000000.0
1080.25,116448000000.0
1080.375,123233000000.0
1080.5,130648000000.0
1080.625,138228000000.0
1080.75,146499000000.0
1080.875,155563000000.0
1081.125,175393000000.0
1081.25,186216000000.0
1081.375,198129000000.0
1081.538,214912000000.0
1081.701,231971000000.0
1081.864,251105000000.0
1082.027,272029000000.0
1082.353,315118000000.0
1082.679,363743000000.0
1083.005,418531000000.0
1083.077,429889000000.0
1083.222,453973000000.0
1083.367,480050000000.0
1083.511,507927000000.0
1083.801,559735000000.0
1084.09,615938000000.0
1084.38,671278000000.0
1084.959,785042000000.0
1085.538,894689000000.0
1086.117,997711000000.0
1086.538,1071640000000.0
1087.379,1211930000000.0
1088.221,1339950000000.0
1089.062,1463280000000.0
1090.0,1586570000000.0
1090.938,1702550000000.0
1091.876,1800970000000.0
1092.814,1887570000000.0
1094.691,2041570000000.0
1095.0,2064570000000.0
1095.619,2104960000000.0
1096.857,2178810000000.0
1098.094,2223940000000.0
1099.332,2251830000000.0
1100.0,2253940000000.0
1100.668,2253950000000.0
1102.003,2239500000000.0
1103.339,2215690000000.0
1105.0,2177360000000.0
1106.661,2112030000000.0
1108.323,2022190000000.0
1109.161,1969740000000.0
1110.0,1899860000000.0
1111.677,1753040000000.0
1115.0,1467340000000.0
1116.661,1347790000000.0
1118.323,1228910000000.0
1119.161,1168250000000.0
1120.0,1097050000000.0
1121.677,952298000000.0
1123.339,802999000000.0
1125.0,655509000000.0
1125.831,574716000000.0
1126.661,505217000000.0
1127.492,435687000000.0
1128.323,371783000000.0
1129.153,316886000000.0
1129.984,263367000000.0
1130.0,262462000000.0
1130.05,259633000000.0
1130.1,256842000000.0
1130.15,254090000000.0
1130.2,251374000000.0
1130.25,248702000000.0
1130.3,246083000000.0
1130.35,243500000000.0
1130.4,240952000000.0
