Wavelength,Flux
900.0,2575200000.0
903.442,2779880000.0
904.998,2877060000.0
906.554,2977240000.0
908.11,3080500000.0
909.667,3186990000.0
910.703,3259640000.0
911.74,3333830000.0
911.84,3341070000.0
912.0,3352670000.0
912.31,3375250000.0
912.779,3409660000.0
913.717,3479430000.0
913.871,3491030000.0
914.026,3502680000.0
914.181,3650480000.0
914.335,3751100000.0
914.49,3879790000.0
914.644,4025720000.0
914.721,4102930000.0
914.798,4171090000.0
914.876,4218630000.0
914.953,4223020000.0
914.992,4195510000.0
915.03,4138440000.0
915.08,4006980000.0
915.13,3816510000.0
915.18,3643590000.0
915.23,3595010000.0
915.28,3598510000.0
915.329,3602280000.0
915.427,3610150000.0
915.475,3659410000.0
915.524,3810670000.0
915.573,3914360000.0
915.622,3848710000.0
915.67,3697360000.0
915.719,3633650000.0
915.768,3636380000.0
915.817,3640200000.0
915.824,3640770000.0
915.874,3644670000.0
915.892,3646080000.0
915.942,3656430000.0
915.992,3796420000.0
916.042,4084770000.0
916.092,4326790000.0
916.142,4384540000.0
916.192,4239830000.0
916.242,3940040000.0
916.292,3713490000.0
916.342,3681440000.0
916.385,3684860000.0
916.429,3688310000.0
916.516,3695200000.0
916.56,3723600000.0
916.603,3923420000.0
916.647,4300840000.0
916.69,4717350000.0
916.734,5062000000.0
916.777,5278610000.0
916.821,5330690000.0
916.864,5204150000.0
916.908,4912380000.0
916.951,4500400000.0
916.995,4074230000.0
917.038,3798550000.0
917.082,3740650000.0
917.125,3743690000.0
917.181,3748150000.0
917.292,3760900000.0
917.331,3862210000.0
917.37,4166760000.0
917.409,4645770000.0
917.448,5180370000.0
917.487,5704790000.0
917.526,6183970000.0
917.565,6578180000.0
917.604,6853020000.0
917.642,7001650000.0
917.681,7012110000.0
917.72,6878260000.0
917.759,6604170000.0
917.798,6190930000.0
917.837,5681510000.0
917.876,5121650000.0
917.915,4555090000.0
917.953,4103570000.0
917.992,3858960000.0
918.031,3817210000.0
918.07,3820020000.0
918.129,3824830000.0
918.247,3842700000.0
918.276,3931260000.0
918.306,4157790000.0
918.335,4523770000.0
918.365,4999310000.0
918.394,5511390000.0
918.424,6059810000.0
918.453,6620180000.0
918.483,7163900000.0
918.542,8189740000.0
918.571,8642380000.0
918.601,9042690000.0
918.63,9386950000.0
918.66,9664380000.0
918.689,9874080000.0
918.719,10011500000.0
918.748,10068600000.0
918.778,10042800000.0
918.807,9932150000.0
918.837,9739800000.0
918.866,9470280000.0
918.896,9122380000.0
918.925,8703770000.0
918.954,8222550000.0
919.004,7301270000.0
919.054,6306040000.0
919.104,5336020000.0
919.154,4490810000.0
919.204,4007660000.0
919.254,3917890000.0
919.304,3921780000.0
919.351,3925710000.0
919.445,3933700000.0
919.492,4002540000.0
919.539,4415640000.0
919.586,5214280000.0
919.633,6201410000.0
919.68,7305680000.0
919.727,8478570000.0
919.822,10809500000.0
919.869,11884200000.0
919.916,12882400000.0
919.963,13745100000.0
920.01,14467500000.0
920.057,15029700000.0
920.104,15419500000.0
920.151,15627200000.0
920.198,15642700000.0
920.245,15459600000.0
920.292,15074800000.0
920.339,14489500000.0
920.386,13710600000.0
920.433,12758100000.0
920.48,11656800000.0
920.52,10642900000.0
920.56,9579630000.0
920.64,7449520000.0
920.679,6455460000.0
920.719,5556910000.0
920.759,4781040000.0
920.799,4268590000.0
920.839,4067220000.0
920.878,4055100000.0
920.958,4061940000.0
920.963,4062370000.0
921.013,4066680000.0
921.063,4071400000.0
921.113,4191160000.0
921.163,4761730000.0
921.213,5769360000.0
921.263,7017860000.0
921.313,8437650000.0
921.363,9984200000.0
921.413,11628700000.0
921.513,14950400000.0
921.563,16558600000.0
921.613,18101000000.0
921.663,19533900000.0
921.713,20831300000.0
921.763,21995600000.0
921.813,23029300000.0
921.863,23911300000.0
921.913,24621600000.0
921.963,25164500000.0
922.013,25535500000.0
922.063,25727300000.0
922.113,25734200000.0
922.117,25726000000.0
922.167,25525800000.0
922.217,25130100000.0
922.267,24536200000.0
922.317,23737300000.0
922.367,22727500000.0
922.417,21541500000.0
922.467,20186700000.0
922.506,19002400000.0
922.556,17360500000.0
922.606,15614500000.0
922.656,13814100000.0
922.756,10251300000.0
922.791,9098490000.0
922.825,8000820000.0
922.86,7004970000.0
922.895,6100080000.0
922.93,5321490000.0
922.964,4710370000.0
922.992,4407530000.0
923.042,4246320000.0
923.089,4249050000.0
923.114,4251290000.0
923.138,4253450000.0
923.144,4253980000.0
923.15,4254530000.0
923.156,4255060000.0
923.162,4255600000.0
923.187,4257840000.0
923.211,4259990000.0
923.261,4266800000.0
923.308,4436660000.0
923.358,5117640000.0
923.405,6173350000.0
923.455,7551620000.0
923.505,9151050000.0
923.555,10928700000.0
923.605,12868300000.0
923.655,14922500000.0
923.705,17028400000.0
923.794,20835500000.0
923.883,24512500000.0
923.972,27959900000.0
924.061,31101900000.0
924.15,33903900000.0
924.183,34855300000.0
924.249,36618600000.0
924.314,38156000000.0
924.38,39480800000.0
924.436,40474300000.0
924.492,41311500000.0
924.549,41981700000.0
924.605,42487500000.0
924.661,42823700000.0
924.688,42923000000.0
924.741,43002400000.0
924.795,42919700000.0
924.848,42671500000.0
924.939,41854100000.0
924.984,41255000000.0
925.03,40526600000.0
925.08,39585300000.0
925.13,38504100000.0
925.18,37252700000.0
925.189,37006900000.0
925.239,35554200000.0
925.289,33964300000.0
925.339,32238400000.0
925.389,30369100000.0
925.439,28367200000.0
925.489,26258800000.0
925.539,24042600000.0
925.579,22239900000.0
925.659,18544600000.0
925.739,14908200000.0
925.819,11532700000.0
925.857,10094300000.0
925.895,8757200000.0
925.932,7568740000.0
925.97,6507630000.0
926.008,5609860000.0
926.045,4938940000.0
926.067,4697080000.0
926.117,4529340000.0
926.165,4532570000.0
926.189,4534840000.0
926.214,4537220000.0
926.22,4537780000.0
926.226,4538360000.0
926.232,4538920000.0
926.238,4539500000.0
926.263,4541870000.0
926.287,4544150000.0
926.337,4550810000.0
926.385,4728400000.0
926.435,5453200000.0
926.482,6576480000.0
926.532,8047720000.0
926.582,9772980000.0
926.632,11718100000.0
926.682,13873000000.0
926.732,16195200000.0
926.782,18631400000.0
926.832,21156600000.0
926.873,23237500000.0
926.955,27443300000.0
927.119,35561200000.0
927.191,38943900000.0
927.263,42131500000.0
927.407,48114500000.0
927.478,50818500000.0
927.55,53331000000.0
927.694,57876100000.0
927.765,59893500000.0
927.837,61728600000.0
927.875,62626200000.0
927.951,64289400000.0
928.102,67085100000.0
928.177,68180900000.0
928.253,69090400000.0
928.404,70349700000.0
928.487,70721700000.0
928.57,70859600000.0
928.653,70755700000.0
928.736,70402500000.0
928.819,69791400000.0
928.902,68907000000.0
928.985,67738000000.0
929.097,65710000000.0
929.209,63158800000.0
929.32,60050100000.0
929.376,58278600000.0
929.432,56367300000.0
929.543,52171500000.0
929.599,49868800000.0
929.655,47427700000.0
929.706,45040500000.0
929.808,40087100000.0
929.911,34828200000.0
930.013,29341500000.0
930.098,24702500000.0
930.183,20135100000.0
930.268,15809900000.0
930.311,13812800000.0
930.353,11933600000.0
930.396,10229100000.0
930.439,8703000000.0
930.489,7145760000.0
930.491,7082880000.0
930.541,5842790000.0
930.589,5138220000.0
930.639,4975500000.0
930.687,4979710000.0
930.711,4982180000.0
930.736,4984760000.0
930.742,4985380000.0
930.748,4985990000.0
930.754,4986620000.0
930.76,4987240000.0
930.785,4989810000.0
930.809,4992290000.0
930.859,4998680000.0
930.907,5172070000.0
930.957,5933820000.0
931.005,7159140000.0
931.055,8731830000.0
931.105,10578900000.0
931.155,12667300000.0
931.205,14996700000.0
931.255,17520400000.0
931.305,20184900000.0
931.355,22973000000.0
931.398,25408900000.0
931.484,30392600000.0
931.657,40294800000.0
931.79,47738300000.0
931.923,54826800000.0
932.057,61446100000.0
932.19,67620600000.0
932.324,73328300000.0
932.457,78588000000.0
932.591,83395600000.0
932.724,87744900000.0
932.857,91666800000.0
933.033,96205900000.0
933.209,100148000000.0
933.384,103549000000.0
933.56,106416000000.0
933.736,108761000000.0
933.911,110620000000.0
934.087,111990000000.0
934.276,112895000000.0
934.465,113180000000.0
934.654,112842000000.0
934.843,111839000000.0
935.032,110128000000.0
935.221,107640000000.0
935.41,104423000000.0
935.514,102238000000.0
935.722,97056500000.0
935.825,94059600000.0
935.929,90660400000.0
936.033,86949100000.0
936.137,82901400000.0
936.241,78523000000.0
936.345,73830800000.0
936.448,68849600000.0
936.552,63483100000.0
936.653,58057000000.0
936.753,52301400000.0
936.853,46344100000.0
936.954,40213200000.0
937.148,28096600000.0
937.245,22198800000.0
937.342,16741300000.0
937.391,14276400000.0
937.439,12051500000.0
937.488,10063400000.0
937.536,8352480000.0
937.544,8116360000.0
937.594,6720230000.0
937.642,5923390000.0
937.692,5750060000.0
937.741,5755110000.0
937.766,5758030000.0
937.791,5760960000.0
937.797,5761670000.0
937.803,5762360000.0
937.809,5763070000.0
937.815,5763770000.0
937.84,5766710000.0
937.865,5769640000.0
937.915,5776310000.0
937.964,5962800000.0
938.014,6824420000.0
938.062,8202420000.0
938.112,9958190000.0
938.162,12017100000.0
938.212,14345200000.0
938.262,16945400000.0
938.312,19766700000.0
938.362,22745800000.0
938.412,25870900000.0
938.458,28813900000.0
938.55,34840400000.0
938.734,46909100000.0
938.853,54515300000.0
938.972,61890300000.0
939.09,68921500000.0
939.209,75659400000.0
939.327,82044200000.0
939.564,93904900000.0
939.683,99299500000.0
939.801,104374000000.0
940.038,113548000000.0
940.275,121759000000.0
940.434,126717000000.0
940.751,135695000000.0
941.069,143749000000.0
941.386,150523000000.0
941.703,156352000000.0
942.015,161329000000.0
942.327,165621000000.0
942.639,169255000000.0
942.894,171749000000.0
943.404,176016000000.0
943.773,177642000000.0
944.142,178320000000.0
944.511,178018000000.0
944.625,177718000000.0
944.853,176809000000.0
945.31,173688000000.0
945.478,172092000000.0
945.814,168135000000.0
946.149,163089000000.0
946.485,156720000000.0
946.782,149844000000.0
947.079,141688000000.0
947.376,132058000000.0
947.673,120595000000.0
947.821,114018000000.0
947.97,106806000000.0
948.118,98956000000.0
948.267,90440200000.0
948.415,81303000000.0
948.563,71549200000.0
948.68,63404700000.0
948.797,55006400000.0
948.913,46422900000.0
949.03,37700600000.0
949.08,33983500000.0
949.181,26710100000.0
949.231,23281000000.0
949.282,20061400000.0
949.332,17066200000.0
949.383,14377400000.0
949.431,12096400000.0
949.48,10128100000.0
949.53,8464180000.0
949.58,7480190000.0
949.63,7305020000.0
949.68,7311780000.0
949.705,7315400000.0
949.73,7319010000.0
949.737,7320020000.0
949.743,7320880000.0
949.749,7321770000.0
949.755,7322630000.0
949.781,7326390000.0
949.806,7330020000.0
949.856,7337730000.0
949.906,7528470000.0
949.956,8535060000.0
950.006,10231700000.0
950.056,12304400000.0
950.106,14725000000.0
950.156,17466800000.0
950.206,20524600000.0
950.256,23820200000.0
950.306,27329400000.0
950.356,31007700000.0
950.406,34800600000.0
950.456,38644700000.0
950.556,46479800000.0
950.756,62004400000.0
950.806,65822200000.0
950.906,73369200000.0
951.106,87628500000.0
951.206,94384100000.0
951.307,100878000000.0
951.507,113107000000.0
951.707,124272000000.0
951.907,134341000000.0
952.107,143575000000.0
952.307,152054000000.0
952.407,156011000000.0
952.606,163560000000.0
953.004,177171000000.0
953.402,189035000000.0
953.8,199660000000.0
954.008,204843000000.0
954.424,214526000000.0
955.257,232222000000.0
955.609,239230000000.0
956.313,253519000000.0
957.211,270578000000.0
958.812,300298000000.0
960.413,329973000000.0
960.594,333327000000.0
960.776,340710000000.0
960.867,342479000000.0
960.958,344244000000.0
961.048,346006000000.0
961.139,347769000000.0
961.19,348757000000.0
961.29,350699000000.0
961.376,352374000000.0
961.548,355690000000.0
961.611,356897000000.0
961.737,359317000000.0
961.989,364173000000.0
962.494,373825000000.0
963.251,388153000000.0
964.766,414629000000.0
964.89,416472000000.0
965.139,420055000000.0
965.637,426657000000.0
966.53,434856000000.0
966.977,436325000000.0
967.423,436304000000.0
967.796,432957000000.0
968.169,428775000000.0
968.542,422963000000.0
968.915,414799000000.0
969.661,397141000000.0
969.809,393929000000.0
970.105,387423000000.0
970.697,374003000000.0
970.885,368785000000.0
971.073,364239000000.0
971.167,362188000000.0
971.26,360264000000.0
971.307,359345000000.0
971.354,355749000000.0
971.401,347084000000.0
971.448,339913000000.0
971.542,328432000000.0
971.635,319553000000.0
971.729,312339000000.0
971.823,306294000000.0
971.858,304266000000.0
971.928,300512000000.0
972.068,290764000000.0
972.208,280252000000.0
972.268,276421000000.0
972.37,270575000000.0
972.473,265333000000.0
972.499,264102000000.0
972.524,262949000000.0
972.531,262630000000.0
972.537,262360000000.0
972.543,262088000000.0
972.55,261777000000.0
972.575,260679000000.0
972.601,259564000000.0
972.653,257416000000.0
972.703,256510000000.0
972.803,255097000000.0
972.806,255055000000.0
972.856,254370000000.0
972.956,253035000000.0
973.156,250500000000.0
973.216,249764000000.0
973.336,248786000000.0
973.456,250816000000.0
973.576,252884000000.0
973.626,253759000000.0
973.726,255535000000.0
973.926,259203000000.0
974.126,263926000000.0
974.326,269448000000.0
974.726,281537000000.0
975.265,298331000000.0
975.804,314039000000.0
976.344,328174000000.0
976.905,342179000000.0
977.466,357990000000.0
978.028,378608000000.0
978.544,396342000000.0
979.06,414996000000.0
979.576,438386000000.0
979.88,456925000000.0
980.184,477196000000.0
980.488,500471000000.0
980.792,524788000000.0
981.096,543360000000.0
981.399,563679000000.0
981.611,572109000000.0
981.823,581075000000.0
982.247,598359000000.0
983.094,628742000000.0
983.463,640716000000.0
984.202,666411000000.0
985.102,701845000000.0
986.002,730517000000.0
986.742,754459000000.0
988.221,798755000000.0
988.381,798169000000.0
988.541,797601000000.0
988.861,797563000000.0
989.18,804866000000.0
989.5,812111000000.0
989.76,813544000000.0
990.021,814945000000.0
990.281,813715000000.0
990.542,807900000000.0
991.063,799515000000.0
991.361,797682000000.0
991.66,798297000000.0
991.71,799326000000.0
991.81,801386000000.0
992.01,805516000000.0
992.21,809590000000.0
992.41,816947000000.0
992.61,825100000000.0
992.81,833281000000.0
993.01,842998000000.0
993.21,855583000000.0
993.3,861444000000.0
993.48,873572000000.0
993.84,899786000000.0
994.56,949519000000.0
995.279,968712000000.0
995.999,971206000000.0
996.324,974715000000.0
996.65,989731000000.0
996.976,1009500000000.0
997.301,1036720000000.0
997.627,1071540000000.0
997.952,1109390000000.0
998.278,1150860000000.0
998.603,1191230000000.0
998.929,1221290000000.0
999.255,1246580000000.0
999.417,1251050000000.0
999.58,1256350000000.0
999.743,1262550000000.0
999.784,1388110000000.0
999.824,1389730000000.0
999.865,1391340000000.0
999.906,1392090000000.0
999.956,1391310000000.0
1000.0,1390600000000.0
1000.089,1389780000000.0
1000.266,1387970000000.0
1000.62,1380010000000.0
1000.975,1358910000000.0
1001.329,1335160000000.0
1001.912,1296510000000.0
1003.077,1221930000000.0
1003.824,1173590000000.0
1005.317,1084330000000.0
1005.553,1071410000000.0
1006.024,1046910000000.0
1006.967,999516000000.0
1007.282,985651000000.0
1007.913,957645000000.0
1009.011,913193000000.0
1009.875,881620000000.0
1010.74,851941000000.0
1012.469,799019000000.0
1014.198,751411000000.0
1014.249,750075000000.0
1014.349,747495000000.0
1014.549,742397000000.0
1014.749,737210000000.0
1014.949,732254000000.0
1015.149,727099000000.0
1015.349,722037000000.0
1015.549,717093000000.0
1015.749,712073000000.0
1015.928,707737000000.0
1016.286,698724000000.0
1017.002,681112000000.0
1017.657,664569000000.0
1018.968,630124000000.0
1019.386,618090000000.0
1020.223,591729000000.0
1020.669,575755000000.0
1021.115,557942000000.0
1021.561,537386000000.0
1022.007,513580000000.0
1022.426,486210000000.0
1022.844,453341000000.0
1023.053,435389000000.0
1023.262,414336000000.0
1023.472,393217000000.0
1023.681,366348000000.0
1023.89,338897000000.0
1024.099,306228000000.0
1024.309,270701000000.0
1024.518,235287000000.0
1024.574,224226000000.0
1024.63,213222000000.0
1024.742,191696000000.0
1024.967,147308000000.0
1025.006,139288000000.0
1025.084,123330000000.0
1025.162,106538000000.0
1025.24,89320300000.0
1025.318,72430100000.0
1025.395,56687400000.0
1025.438,48934900000.0
1025.488,40850900000.0
1025.538,34365800000.0
1025.546,33531300000.0
1025.596,29882300000.0
1025.646,28964600000.0
1025.654,28954200000.0
1025.681,28962700000.0
1025.708,28975700000.0
1025.715,28979000000.0
1025.72,28981400000.0
1025.722,28982400000.0
1025.729,28985700000.0
1025.736,28989100000.0
1025.763,29002100000.0
1025.79,29015200000.0
1025.817,29057900000.0
1025.844,29378300000.0
1025.871,30373900000.0
1025.898,32214900000.0
1025.925,34924500000.0
1025.952,38295400000.0
1025.979,42195300000.0
1026.005,46578300000.0
1026.056,55678000000.0
1026.106,65631900000.0
1026.156,76393600000.0
1026.206,87654000000.0
1026.256,99071800000.0
1026.306,110579000000.0
1026.356,121924000000.0
1026.406,132900000000.0
1026.438,139751000000.0
1026.501,152835000000.0
1026.628,179144000000.0
1026.87,227292000000.0
1026.991,251473000000.0
1027.112,272675000000.0
1027.355,315025000000.0
1027.597,355821000000.0
1027.839,390039000000.0
1028.082,422632000000.0
1028.324,451037000000.0
1028.6,481841000000.0
1028.876,508513000000.0
1029.152,533133000000.0
1029.428,555385000000.0
1029.704,575659000000.0
1030.257,612613000000.0
1030.329,617146000000.0
1030.474,626271000000.0
1030.763,644515000000.0
1031.341,681590000000.0
1032.058,724480000000.0
1032.775,761855000000.0
1033.493,797178000000.0
1033.787,811507000000.0
1034.376,835743000000.0
1034.965,854789000000.0
1035.516,878853000000.0
1036.067,908740000000.0
1036.619,946304000000.0
1036.894,969516000000.0
1037.17,993857000000.0
1037.246,1000780000000.0
1037.398,1015410000000.0
1037.703,1042700000000.0
1038.312,1097310000000.0
1038.975,1161440000000.0
1039.638,1217480000000.0
1040.3,1266610000000.0
1040.704,1299180000000.0
1041.512,1371330000000.0
1042.319,1437590000000.0
1042.433,1446580000000.0
1042.661,1464560000000.0
1043.116,1501520000000.0
1044.026,1583240000000.0
1044.162,1596160000000.0
1044.434,1622520000000.0
1044.979,1678030000000.0
1045.892,1788500000000.0
1046.805,1907660000000.0
1047.621,1996740000000.0
1048.437,2086100000000.0
1048.81,2139030000000.0
1049.183,2197880000000.0
1049.928,2319860000000.0
1050.0,2331530000000.0
1050.144,2348950000000.0
1050.431,2384080000000.0
1051.007,2437030000000.0
1051.582,2478720000000.0
1052.732,2553360000000.0
1053.866,2600210000000.0
1055.0,2658170000000.0
1055.567,2692950000000.0
1056.134,2710260000000.0
1056.701,2700210000000.0
1057.268,2672580000000.0
1057.834,2647610000000.0
1058.401,2643720000000.0
1058.968,2669430000000.0
1059.252,2696580000000.0
1059.535,2727010000000.0
1060.0,2795090000000.0
1060.465,2882550000000.0
1060.93,2994220000000.0
1061.162,3062670000000.0
1061.395,3138920000000.0
1061.627,3226930000000.0
1061.859,3327910000000.0
1062.092,3442980000000.0
1062.324,3577860000000.0
1062.557,3729370000000.0
1062.789,3902480000000.0
1063.021,4098030000000.0
1063.254,4307940000000.0
1063.486,4548060000000.0
1063.719,4788990000000.0
1064.184,5316400000000.0
1064.648,5846880000000.0
1065.0,6245340000000.0
1065.703,6978720000000.0
1066.406,7784680000000.0
1066.758,8226540000000.0
1067.109,8684750000000.0
1067.461,9131960000000.0
1067.812,9453760000000.0
1068.164,9655130000000.0
1068.516,9714900000000.0
1068.867,9538320000000.0
1069.219,9251430000000.0
1069.57,8899510000000.0
1069.922,8516170000000.0
1070.0,8435890000000.0
1070.156,8282820000000.0
1070.469,7993620000000.0
1070.781,7767170000000.0
1071.094,7577050000000.0
1071.406,7438230000000.0
1071.719,7332540000000.0
1072.344,7165200000000.0
1072.969,6981780000000.0
1073.594,6695800000000.0
1074.219,6327880000000.0
1075.0,5862790000000.0
1075.391,5674310000000.0
1075.781,5534330000000.0
1076.172,5446470000000.0
1076.562,5412930000000.0
1076.953,5447590000000.0
1077.344,5564520000000.0
1077.734,5755450000000.0
1078.125,6032130000000.0
1078.32,6215350000000.0
1078.516,6414750000000.0
1078.711,6668260000000.0
1078.906,6945830000000.0
1079.102,7265500000000.0
