Wavelength,Flux
900.0,1219500.0
903.442,1355390.0
904.998,1421280.0
906.554,1490120.0
908.11,1562010.0
909.667,1637130.0
910.703,1688930.0
911.74,1742300.0
911.84,1747530.0
912.0,1755920.0
912.31,1772290.0
912.779,1797320.0
913.717,1848370.0
914.335,1882730.0
915.329,1939210.0
915.824,1967920.0
915.892,1971900.0
916.028,1979880.0
916.3,1995920.0
916.429,2003550.0
916.686,2018880.0
917.181,2048640.0
917.448,2064880.0
917.982,2097700.0
918.129,2106830.0
918.423,2125190.0
919.004,2161870.0
919.351,2184070.0
920.045,2229030.0
920.56,2262940.0
920.963,2289950.0
921.769,2344300.0
922.117,2368200.0
922.506,2395170.0
922.895,2422580.0
922.992,2429700.0
923.089,2436800.0
923.114,2438590.0
923.138,2440290.0
923.144,2440720.0
923.15,2441150.0
923.156,2441570.0
923.162,2442000.0
923.187,2443780.0
923.211,2445490.0
923.261,2449030.0
923.308,2452170.0
923.402,2458550.0
923.405,2458760.0
923.455,2462280.0
923.555,2469370.0
923.755,2483710.0
923.794,2486530.0
923.872,2492160.0
924.028,2503460.0
924.183,2514720.0
924.436,2533210.0
924.688,2551760.0
924.939,2570410.0
925.189,2589110.0
925.579,2618520.0
925.97,2648510.0
926.067,2656580.0
926.165,2664640.0
926.189,2666500.0
926.214,2668420.0
926.22,2668890.0
926.226,2669350.0
926.232,2669820.0
926.238,2670280.0
926.263,2672210.0
926.287,2674070.0
926.337,2677900.0
926.385,2681110.0
926.481,2687930.0
926.532,2691830.0
926.632,2699560.0
926.832,2715160.0
926.873,2718360.0
926.955,2724780.0
927.119,2737690.0
927.263,2749090.0
927.551,2772020.0
927.875,2798050.0
928.487,2847920.0
929.097,2898340.0
929.706,2949440.0
930.098,2982790.0
930.491,3016670.0
930.589,3025940.0
930.687,3035260.0
930.711,3037340.0
930.736,3039530.0
930.742,3040040.0
930.748,3040570.0
930.754,3041090.0
930.76,3041610.0
930.785,3043780.0
930.809,3045880.0
930.859,3050190.0
930.907,3053610.0
931.003,3061200.0
931.005,3061380.0
931.055,3065750.0
931.155,3074510.0
931.355,3092030.0
931.398,3095820.0
931.484,3103420.0
931.656,3118640.0
931.79,3130500.0
932.058,3154450.0
932.593,3202900.0
933.033,3243180.0
933.914,3324920.0
934.276,3359050.0
935.001,3428400.0
935.514,3478220.0
936.54,3579800.0
936.753,3601270.0
937.148,3642130.0
937.544,3686280.0
937.642,3697260.0
937.741,3708770.0
937.766,3711380.0
937.791,3713990.0
937.797,3714620.0
937.803,3715250.0
937.809,3715880.0
937.815,3716510.0
937.84,3719120.0
937.865,3721740.0
937.915,3726920.0
937.964,3730940.0
938.062,3740450.0
938.258,3758490.0
938.458,3777710.0
938.853,3818130.0
939.643,3901700.0
940.434,3987520.0
942.015,4164130.0
942.894,4265400.0
943.773,4368700.0
944.625,4470820.0
945.478,4575360.0
947.079,4778210.0
948.68,4992770.0
949.08,5055890.0
949.48,5136100.0
949.58,5152100.0
949.68,5167890.0
949.705,5171430.0
949.73,5174970.0
949.737,5175960.0
949.743,5176820.0
949.749,5177670.0
949.755,5178530.0
949.781,5182210.0
949.806,5185760.0
949.856,5192820.0
949.906,5198330.0
950.006,5210640.0
950.056,5215850.0
950.156,5222540.0
950.356,5236050.0
950.406,5240290.0
950.506,5250200.0
950.706,5274210.0
950.806,5286700.0
951.005,5312690.0
951.404,5367300.0
952.202,5480880.0
952.407,5510580.0
952.816,5570510.0
953.635,5692280.0
954.008,5748680.0
954.753,5863110.0
955.609,5997040.0
957.211,6256070.0
958.812,6526020.0
960.413,6806730.0
960.776,6872070.0
961.14,6938170.0
961.376,6981340.0
961.611,7024600.0
962.081,7111730.0
963.021,7288620.0
963.251,7332520.0
963.71,7421200.0
964.629,7601560.0
964.89,7653550.0
965.412,7758610.0
966.456,7972800.0
966.53,7988210.0
966.678,8019110.0
966.975,8081230.0
967.567,8206940.0
968.169,8336660.0
969.372,8602250.0
969.809,8700640.0
970.683,8900480.0
971.448,9079140.0
971.858,9176540.0
972.268,9275170.0
972.37,9299870.0
972.473,9324900.0
972.499,9331220.0
972.524,9337300.0
972.531,9339010.0
972.537,9340460.0
972.543,9341940.0
972.55,9343630.0
972.575,9349740.0
972.601,9356070.0
972.653,9368770.0
972.703,9380960.0
972.803,9405390.0
972.806,9406130.0
972.856,9418360.0
972.956,9442890.0
973.156,9492120.0
973.216,9506940.0
973.336,9536630.0
973.576,9596110.0
973.626,9608540.0
973.726,9633440.0
973.926,9683440.0
974.326,9784090.0
975.126,9988420.0
975.265,10024500.0
975.544,10097200.0
976.101,10244200.0
976.905,10459600.0
978.512,10904300.0
978.544,10913300.0
978.608,10931300.0
978.735,10967300.0
978.989,11039700.0
979.498,11185700.0
980.184,11385700.0
981.556,11796800.0
981.823,11878600.0
982.357,12043700.0
983.424,12380600.0
983.463,12393000.0
983.54,12417700.0
983.694,12467300.0
984.003,12567100.0
984.62,12768800.0
985.102,12928500.0
986.065,13253900.0
986.742,13487000.0
988.095,13965600.0
988.381,14068900.0
988.953,14277600.0
990.021,14675100.0
991.66,15307400.0
993.3,15967500.0
996.58,17371100.0
996.65,17402400.0
996.79,17465000.0
997.07,17591000.0
997.63,17845600.0
998.75,18365300.0
1000.0,18962000.0
1001.912,19910500.0
1003.824,20905900.0
1005.553,21846400.0
1007.282,22827200.0
1009.011,23851100.0
1010.74,24919500.0
1012.469,26033100.0
1014.199,27194700.0
1015.928,28403800.0
1017.657,29654100.0
1019.386,30944000.0
1021.115,32255200.0
1022.844,33481200.0
1023.709,33909400.0
1024.574,33951600.0
1025.006,34092000.0
1025.222,34366900.0
1025.438,34784800.0
1025.546,34915700.0
1025.654,35020100.0
1025.681,35042200.0
1025.708,35064000.0
1025.715,35069700.0
1025.72,35073700.0
1025.722,35075400.0
1025.729,35081000.0
1025.736,35086700.0
1025.763,35108600.0
1025.79,35130600.0
1025.844,35168500.0
1025.898,35203000.0
1026.005,35256700.0
1026.056,35251900.0
1026.106,35235200.0
1026.156,35209700.0
1026.206,35191500.0
1026.256,35182800.0
1026.306,35185700.0
1026.356,35198800.0
1026.406,35222100.0
1026.438,35243400.0
1026.501,35287200.0
1026.628,35427800.0
1026.87,35800400.0
1027.355,36679200.0
1028.324,38147800.0
1028.6,38501700.0
1029.152,39150200.0
1030.257,40373500.0
1030.329,40451700.0
1030.474,40608400.0
1030.763,40921400.0
1031.341,41547200.0
1032.058,42319200.0
1033.493,43852100.0
1033.787,44170600.0
1034.376,44811500.0
1035.516,46073100.0
1037.246,48058000.0
1038.975,50114700.0
1040.704,52246500.0
1042.433,54459900.0
1044.162,56760200.0
1045.892,59153800.0
1047.621,61641400.0
1048.81,63407800.0
1050.0,65223400.0
1052.38,68930400.0
1055.0,73223400.0
1057.62,77765600.0
1060.0,82117600.0
1064.76,91520700.0
1065.0,92020400.0
1065.48,93027500.0
1066.441,95073900.0
1068.363,99292700.0
1070.0,103016000.0
1073.273,110813000.0
1075.0,115092000.0
1078.453,124110000.0
1080.0,128361000.0
1081.538,132688000.0
1083.077,137144000.0
1086.155,146470000.0
1086.538,147668000.0
1087.304,150092000.0
1088.835,155047000.0
1090.0,158887000.0
1092.33,166833000.0
1095.0,176383000.0
1097.67,186414000.0
1100.0,195516000.0
1104.661,214956000.0
1105.0,216438000.0
1105.679,219426000.0
1107.036,225509000.0
1109.751,238029000.0
1110.0,239207000.0
1110.498,241580000.0
1111.494,246386000.0
1113.486,256248000.0
1115.0,263976000.0
1118.027,279998000.0
1120.0,290753000.0
1123.945,312814000.0
1125.0,318884000.0
1127.109,331216000.0
1130.0,348529000.0
1131.154,355562000.0
1132.308,362578000.0
1134.616,376743000.0
1136.154,386162000.0
1139.23,405049000.0
1140.0,409645000.0
1141.539,418915000.0
1144.617,437390000.0
1145.0,439734000.0
1145.766,444170000.0
1147.297,453344000.0
1150.0,469665000.0
1152.703,486307000.0
1155.406,503220000.0
1158.109,520632000.0
1160.812,539475000.0
1163.516,559872000.0
1165.769,578835000.0
1170.276,622561000.0
1174.783,672884000.0
1179.29,728237000.0
1181.538,757222000.0
1185.628,812233000.0
1189.718,870436000.0
1191.767,901033000.0
1193.816,932669000.0
1195.866,965553000.0
1197.915,999448000.0
1199.964,1034330000.0
1202.014,1070200000.0
1204.063,1107050000.0
1206.113,1144960000.0
1208.162,1183720000.0
1210.211,1223260000.0
1212.261,1264190000.0
1214.31,1306290000.0
1214.822,1316950000.0
1215.335,1327700000.0
1215.463,1330400000.0
1215.591,1333110000.0
1215.623,1333790000.0
1215.655,1334460000.0
1215.663,1334630000.0
1215.67,1334780000.0
1215.679,1334970000.0
1215.687,1335140000.0
1215.719,1335810000.0
1215.751,1336490000.0
1215.815,1337830000.0
1215.879,1339170000.0
1216.007,1341860000.0
1216.263,1347250000.0
1216.52,1352650000.0
1217.032,1363440000.0
1218.056,1385450000.0
1219.081,1407750000.0
1221.131,1450010000.0
1223.18,1493080000.0
1225.229,1537330000.0
1227.279,1585940000.0
1229.328,1636180000.0
1231.378,1687390000.0
1233.427,1740380000.0
1235.476,1795090000.0
1237.526,1851730000.0
1239.575,1909990000.0
1241.625,1969730000.0
1245.725,2094520000.0
1249.825,2226360000.0
1250.812,2259220000.0
1252.786,2326110000.0
1256.733,2465320000.0
1260.0,2586150000.0
1263.267,2712650000.0
1265.0,2782130000.0
1268.466,2925690000.0
1270.0,2991600000.0
1273.068,3127380000.0
1275.0,3215340000.0
1278.863,3400010000.0
1280.0,3456040000.0
1282.273,3570180000.0
1285.0,3709720000.0
1287.727,3854580000.0
1290.0,3979350000.0
1294.547,4241930000.0
1295.0,4269130000.0
1295.906,4324060000.0
1297.719,4435390000.0
1300.0,4578270000.0
1305.0,4901610000.0
1310.0,5244670000.0
1315.0,5609060000.0
1320.0,5995550000.0
1325.0,6405850000.0
1330.0,6841970000.0
1335.0,7303970000.0
1340.0,7791350000.0
1345.0,8305070000.0
1350.0,8848300000.0
1355.0,9424180000.0
1360.0,10030300000.0
1365.0,10670500000.0
1370.0,11347300000.0
1374.231,11946600000.0
1378.462,12572000000.0
1379.231,12688800000.0
1380.0,12806500000.0
1381.538,13044800000.0
1384.614,13533100000.0
1385.0,13595400000.0
1385.771,13720800000.0
1387.314,13974400000.0
1390.0,14425400000.0
1395.0,15298600000.0
1400.0,16217100000.0
1405.0,17183400000.0
1410.0,18200900000.0
1415.0,19269900000.0
1420.0,20390000000.0
1425.0,21565500000.0
1430.0,22798900000.0
1435.0,24087700000.0
1440.0,25431500000.0
1445.0,26834900000.0
1450.0,28302300000.0
1455.0,29835400000.0
1460.0,31438800000.0
1465.0,33114600000.0
1470.0,34876500000.0
1473.462,36148000000.0
1476.923,37462600000.0
1478.462,38061700000.0
1480.0,38669900000.0
1483.076,39915200000.0
1485.0,40714100000.0
1488.848,42356900000.0
1490.0,42859400000.0
1492.304,43878000000.0
1495.0,45090300000.0
1500.0,47392900000.0
1505.0,49777100000.0
1510.0,52273500000.0
1515.0,54906400000.0
1520.0,57664000000.0
1525.0,60492100000.0
1530.0,63331700000.0
1535.0,66181500000.0
1540.0,69103600000.0
1545.0,72171600000.0
1550.0,75427500000.0
1555.0,78872100000.0
1560.0,82470900000.0
1565.0,86171200000.0
1570.0,89933500000.0
1572.692,91984600000.0
1575.385,94059600000.0
1577.692,95865000000.0
1580.0,97710600000.0
1584.616,101498000000.0
1585.0,101821000000.0
1585.768,102471000000.0
1587.304,103787000000.0
1590.0,106149000000.0
1595.0,110723000000.0
1600.0,115571000000.0
1605.0,120720000000.0
1610.0,126199000000.0
1615.0,132030000000.0
1620.0,138261000000.0
1625.0,144898000000.0
1630.0,151959000000.0
1635.0,159410000000.0
1640.0,167239000000.0
1645.0,175384000000.0
1650.0,183806000000.0
1655.0,192478000000.0
1660.0,201406000000.0
1665.0,210606000000.0
1670.0,220091000000.0
1671.923,223805000000.0
1673.846,227579000000.0
1676.923,233752000000.0
1680.0,240079000000.0
1685.0,250681000000.0
1690.0,261764000000.0
1695.0,273390000000.0
1700.0,285626000000.0
1705.0,298551000000.0
1710.0,312244000000.0
1715.0,326850000000.0
1720.0,342450000000.0
1725.0,359388000000.0
1730.0,378004000000.0
1735.0,398416000000.0
1740.0,421164000000.0
1745.0,446931000000.0
1750.0,474930000000.0
1755.0,506330000000.0
1760.0,540428000000.0
1761.154,548634000000.0
1763.462,565085000000.0
1768.078,599370000000.0
1772.308,632504000000.0
1780.767,702878000000.0
1789.226,776841000000.0
1806.145,933042000000.0
1821.539,1085930000000.0
1836.933,1250600000000.0
1852.327,1429370000000.0
1860.024,1525510000000.0
1867.721,1625760000000.0
1870.769,1666880000000.0
1876.865,1751080000000.0
1889.057,1929010000000.0
1901.249,2120240000000.0
1913.441,2325430000000.0
1920.0,2442210000000.0
1933.119,2692020000000.0
1946.237,2962560000000.0
1959.356,3252790000000.0
1969.231,3485220000000.0
1988.981,3988330000000.0
1998.856,4258880000000.0
2008.731,4541080000000.0
2018.462,4836860000000.0
2037.924,5469000000000.0
2047.655,5810220000000.0
2057.386,6171700000000.0
2067.692,6576490000000.0
2077.998,7007850000000.0
2088.303,7463430000000.0
2098.609,7949410000000.0
2108.915,8456150000000.0
2116.923,8871880000000.0
2132.94,9736790000000.0
2148.957,10650600000000.0
2164.974,11592000000000.0
2166.154,11659500000000.0
2168.513,11795600000000.0
2173.232,12072500000000.0
2182.67,12632100000000.0
2201.545,13721500000000.0
2215.385,14518700000000.0
2229.225,15350500000000.0
2243.066,16224000000000.0
2256.906,17162300000000.0
2264.615,17718700000000.0
2280.033,18906800000000.0
2295.451,20261200000000.0
2310.869,21826100000000.0
2313.846,22154100000000.0
2319.8,22828200000000.0
2325.754,23604000000000.0
2331.708,24427300000000.0
2343.616,26241000000000.0
2349.571,27288800000000.0
2355.525,28403100000000.0
2363.077,29942200000000.0
2370.629,31664600000000.0
2378.181,33561800000000.0
2385.734,35623900000000.0
2393.286,37899300000000.0
2400.838,40441900000000.0
2408.39,43054800000000.0
2412.307,44533300000000.0
2420.14,47793300000000.0
2427.973,50993400000000.0
2435.806,54584200000000.0
2443.639,58366600000000.0
2459.305,66356500000000.0
2461.538,67540100000000.0
2466.004,69711100000000.0
2474.937,74432100000000.0
2483.87,79276700000000.0
2501.735,88643900000000.0
2510.769,92886900000000.0
2519.803,97440400000000.0
2528.837,101339000000000.0
2537.872,105361000000000.0
2555.94,112522000000000.0
2560.0,114151000000000.0
2568.12,116929000000000.0
2584.36,122397000000000.0
2600.601,127386000000000.0
2616.841,131854000000000.0
2633.081,136031000000000.0
2649.321,139959000000000.0
2658.461,142094000000000.0
2676.74,146110000000000.0
2695.02,151097000000000.0
2713.299,154959000000000.0
2731.578,158214000000000.0
2749.857,161444000000000.0
2756.923,162690000000000.0
2771.054,165167000000000.0
2785.186,167637000000000.0
2799.317,170099000000000.0
2813.448,172553000000000.0
2827.58,174998000000000.0
2841.711,177433000000000.0
2855.385,179779000000000.0
2869.059,182107000000000.0
2882.733,184424000000000.0
2896.406,186729000000000.0
2910.08,189023000000000.0
2923.754,191304000000000.0
2937.428,193573000000000.0
2945.1,194840000000000.0
2953.846,196280000000000.0
2971.338,199128000000000.0
2988.829,201952000000000.0
3006.321,204752000000000.0
3023.813,207527000000000.0
3041.304,210276000000000.0
3052.308,211992000000000.0
3063.312,213691000000000.0
3074.315,215380000000000.0
3085.319,217057000000000.0
3096.323,218723000000000.0
3107.326,220377000000000.0
3118.33,222020000000000.0
3129.334,223650000000000.0
3140.337,225269000000000.0
3150.769,226792000000000.0
3161.201,228304000000000.0
3171.632,229804000000000.0
3182.064,231294000000000.0
3187.7,232094000000000.0
3198.972,233683000000000.0
3210.244,235260000000000.0
3221.516,236822000000000.0
3232.788,238372000000000.0
3244.06,239907000000000.0
3249.231,240607000000000.0
3259.573,241997000000000.0
3269.916,243376000000000.0
3280.258,244743000000000.0
3290.6,246098000000000.0
3300.942,247441000000000.0
3311.285,248771000000000.0
3321.627,250090000000000.0
3331.969,251397000000000.0
3342.312,252691000000000.0
3347.692,253360000000000.0
3358.453,254687000000000.0
3369.213,256002000000000.0
3379.974,257302000000000.0
3390.735,258589000000000.0
3401.496,259863000000000.0
3412.256,261123000000000.0
3423.017,262369000000000.0
3433.778,263602000000000.0
3444.539,264821000000000.0
3446.154,265003000000000.0
3449.385,265365000000000.0
3455.847,266085000000000.0
3468.771,267511000000000.0
3481.695,268917000000000.0
3494.618,270303000000000.0
3507.542,271669000000000.0
3520.466,273016000000000.0
3533.39,274342000000000.0
3544.615,275479000000000.0
3555.84,276596000000000.0
3567.065,277699000000000.0
3578.29,278787000000000.0
3589.515,279859000000000.0
3595.868,280460000000000.0
3608.573,281645000000000.0
3621.278,282812000000000.0
3633.983,283959000000000.0
3646.5,285071000000000.0
3647.0,285115000000000.0
3647.12,285125000000000.0
3647.22,284584000000000.0
3647.42,284602000000000.0
3647.819,284637000000000.0
3648.0,284653000000000.0
3648.362,284685000000000.0
3649.085,284750000000000.0
3650.533,284878000000000.0
3653.427,285134000000000.0
3659.216,285644000000000.0
3665.005,286149000000000.0
3668.675,286467000000000.0
3676.014,287098000000000.0
3682.807,287677000000000.0
3686.832,288018000000000.0
3690.13,288295000000000.0
3691.554,288414000000000.0
3694.402,288652000000000.0
3696.486,288826000000000.0
3697.152,288881000000000.0
3698.484,288992000000000.0
3701.148,289213000000000.0
3702.843,289353000000000.0
3703.853,289436000000000.0
3705.0,289531000000000.0
3707.294,289719000000000.0
3709.2,289875000000000.0
3711.971,290100000000000.0
3715.556,290392000000000.0
3721.913,290902000000000.0
3721.938,290904000000000.0
3721.988,290908000000000.0
3722.038,290913000000000.0
3722.088,290917000000000.0
3722.138,290921000000000.0
3722.188,290926000000000.0
3722.238,290930000000000.0
3722.288,290934000000000.0
3722.338,290938000000000.0
3722.388,290942000000000.0
3722.438,290946000000000.0
3722.489,290950000000000.0
3722.539,290955000000000.0
3722.589,290959000000000.0
3722.639,290963000000000.0
3722.689,290967000000000.0
3722.739,290971000000000.0
3722.789,290975000000000.0
3722.839,290979000000000.0
3722.889,290983000000000.0
3722.939,290987000000000.0
3722.989,290991000000000.0
3723.039,290995000000000.0
3723.089,290999000000000.0
3723.139,291003000000000.0
3723.189,291007000000000.0
3723.239,291011000000000.0
3723.289,291015000000000.0
3723.339,291019000000000.0
3723.389,291023000000000.0
3723.439,291027000000000.0
3723.49,291031000000000.0
3723.54,291035000000000.0
3723.59,291039000000000.0
3723.64,291043000000000.0
3723.69,291047000000000.0
3723.74,291051000000000.0
3723.79,291055000000000.0
3723.84,291059000000000.0
3723.89,291063000000000.0
3723.94,291067000000000.0
3723.99,291071000000000.0
3724.04,291075000000000.0
3724.09,291079000000000.0
3724.14,291083000000000.0
3724.19,291087000000000.0
3724.24,291091000000000.0
3724.29,291095000000000.0
3724.34,291099000000000.0
3724.39,291103000000000.0
3724.44,291107000000000.0
3724.49,291111000000000.0
3724.541,291115000000000.0
3724.591,291119000000000.0
3724.641,291123000000000.0
3724.691,291127000000000.0
3724.741,291131000000000.0
3724.791,291135000000000.0
3724.841,291139000000000.0
3724.891,291143000000000.0
3724.941,291147000000000.0
3724.991,291151000000000.0
3725.041,291155000000000.0
3725.091,291159000000000.0
3725.141,291163000000000.0
3725.191,291167000000000.0
3725.241,291171000000000.0
3725.291,291175000000000.0
3725.341,291179000000000.0
3725.391,291183000000000.0
3725.441,291187000000000.0
3725.491,291191000000000.0
3725.542,291195000000000.0
3725.592,291199000000000.0
3725.642,291203000000000.0
3725.692,291207000000000.0
3725.742,291211000000000.0
3725.792,291215000000000.0
3725.842,291219000000000.0
3725.892,291223000000000.0
3725.942,291227000000000.0
3725.992,291231000000000.0
3726.042,291235000000000.0
3726.092,291239000000000.0
3726.142,291243000000000.0
3726.192,291247000000000.0
3726.242,291251000000000.0
3726.292,291255000000000.0
3726.342,291259000000000.0
3726.392,291263000000000.0
3726.442,291267000000000.0
3726.492,291271000000000.0
3726.542,291275000000000.0
3726.593,291279000000000.0
3726.643,291283000000000.0
3726.693,291287000000000.0
3726.743,291291000000000.0
3726.793,291295000000000.0
3726.843,291299000000000.0
3726.893,291303000000000.0
3726.943,291307000000000.0
3726.993,291311000000000.0
3727.043,291315000000000.0
3727.093,291319000000000.0
3727.143,291323000000000.0
3727.193,291327000000000.0
3727.243,291331000000000.0
3727.293,291335000000000.0
3727.343,291339000000000.0
3727.393,291343000000000.0
3727.443,291347000000000.0
3727.493,291351000000000.0
3727.543,291355000000000.0
3727.594,291359000000000.0
3727.644,291363000000000.0
3727.694,291366000000000.0
3727.744,291371000000000.0
3727.794,291375000000000.0
3727.844,291379000000000.0
3727.894,291383000000000.0
3727.944,291386000000000.0
3727.994,291390000000000.0
3728.044,291395000000000.0
3728.094,291398000000000.0
3728.144,291403000000000.0
3728.194,291406000000000.0
3728.244,291410000000000.0
3728.269,291412000000000.0
