Wavelength,Flux
900.0,1168960000.0
903.442,1265670000.0
904.998,1311690000.0
906.554,1359190000.0
908.11,1408220000.0
909.667,1458860000.0
910.703,1493440000.0
911.74,1528790000.0
911.84,1532240000.0
912.0,1537770000.0
912.31,1548530000.0
912.779,1564950000.0
913.717,1598250000.0
914.335,1631960000.0
914.644,1659700000.0
914.953,1686250000.0
915.141,1664460000.0
915.329,1656950000.0
915.423,1660430000.0
915.517,1678690000.0
915.611,1690160000.0
915.658,1678290000.0
915.705,1671320000.0
915.755,1672780000.0
915.805,1674640000.0
915.824,1675350000.0
915.874,1677220000.0
915.892,1677900000.0
915.942,1680190000.0
915.992,1695040000.0
916.042,1724240000.0
916.092,1748990000.0
916.142,1756810000.0
916.192,1743810000.0
916.242,1717930000.0
916.292,1696050000.0
916.342,1694810000.0
916.429,1698100000.0
916.516,1701400000.0
916.603,1727940000.0
916.69,1808760000.0
916.777,1863830000.0
916.821,1870810000.0
916.865,1861240000.0
916.908,1836860000.0
916.952,1799130000.0
917.002,1751050000.0
917.052,1723800000.0
917.102,1723710000.0
917.181,1726750000.0
917.34,1749310000.0
917.394,1809850000.0
917.448,1886050000.0
917.502,1957770000.0
917.556,2014160000.0
917.61,2052440000.0
917.664,2068160000.0
917.718,2059710000.0
917.772,2024950000.0
917.827,1967340000.0
917.881,1890450000.0
917.935,1811790000.0
917.989,1764020000.0
918.043,1760120000.0
918.097,1762230000.0
918.129,1763480000.0
918.193,1766000000.0
918.225,1767260000.0
918.257,1770580000.0
918.29,1790540000.0
918.322,1828500000.0
918.354,1881530000.0
918.386,1943870000.0
918.45,2069890000.0
918.514,2189560000.0
918.578,2288800000.0
918.643,2361640000.0
918.707,2406110000.0
918.771,2419660000.0
918.835,2399720000.0
918.9,2343340000.0
918.964,2251160000.0
919.004,2175860000.0
919.054,2072250000.0
919.154,1874480000.0
919.204,1816280000.0
919.254,1807980000.0
919.302,1809920000.0
919.351,1811860000.0
919.448,1815760000.0
919.497,1827400000.0
919.545,1887700000.0
919.594,1987060000.0
919.642,2107290000.0
919.739,2370960000.0
919.836,2615590000.0
919.885,2720880000.0
919.933,2811330000.0
919.982,2887390000.0
920.03,2949650000.0
920.079,2996590000.0
920.127,3028220000.0
920.176,3043900000.0
920.224,3042830000.0
920.273,3023860000.0
920.321,2985960000.0
920.37,2927480000.0
920.419,2848950000.0
920.467,2749690000.0
920.516,2629730000.0
920.56,2506810000.0
920.61,2359630000.0
920.71,2074120000.0
920.76,1959080000.0
920.81,1887650000.0
920.86,1873260000.0
920.91,1875290000.0
920.96,1877350000.0
920.963,1877480000.0
921.013,1879550000.0
921.113,1897550000.0
921.163,1971740000.0
921.213,2093290000.0
921.263,2243300000.0
921.313,2415370000.0
921.413,2782250000.0
921.513,3131790000.0
921.563,3292200000.0
921.613,3436900000.0
921.663,3567940000.0
921.713,3684030000.0
921.763,3786270000.0
921.813,3875400000.0
921.913,4014620000.0
921.963,4064050000.0
922.013,4100940000.0
922.113,4134640000.0
922.117,4134820000.0
922.167,4128890000.0
922.217,4107360000.0
922.267,4069760000.0
922.317,4014120000.0
922.367,3938900000.0
922.417,3843790000.0
922.467,3728230000.0
922.506,3623150000.0
922.545,3504500000.0
922.584,3374270000.0
922.623,3230710000.0
922.662,3079700000.0
922.74,2762920000.0
922.818,2452030000.0
922.857,2313510000.0
922.895,2192380000.0
922.933,2087580000.0
922.972,2012540000.0
922.992,1985880000.0
923.042,1965330000.0
923.089,1967250000.0
923.114,1968330000.0
923.138,1969360000.0
923.144,1969620000.0
923.15,1969880000.0
923.156,1970140000.0
923.162,1970400000.0
923.187,1971480000.0
923.211,1972510000.0
923.261,1974830000.0
923.308,1999660000.0
923.358,2086830000.0
923.405,2219060000.0
923.455,2391490000.0
923.505,2596120000.0
923.555,2821660000.0
923.605,3058430000.0
923.705,3539260000.0
923.794,3943480000.0
923.883,4311880000.0
923.972,4640940000.0
924.061,4927760000.0
924.15,5181690000.0
924.183,5266540000.0
924.249,5419670000.0
924.38,5672340000.0
924.436,5760550000.0
924.549,5900870000.0
924.661,5993410000.0
924.688,6008070000.0
924.741,6028820000.0
924.848,6033920000.0
924.939,5996510000.0
925.03,5916360000.0
925.121,5787860000.0
925.189,5657590000.0
925.257,5495580000.0
925.325,5297930000.0
925.393,5065640000.0
925.461,4803600000.0
925.529,4506690000.0
925.579,4269810000.0
925.629,4017990000.0
925.679,3755260000.0
925.779,3215850000.0
925.827,2967440000.0
925.874,2734060000.0
925.922,2525840000.0
925.97,2351250000.0
926.02,2206670000.0
926.067,2124380000.0
926.117,2101790000.0
926.165,2103880000.0
926.189,2104980000.0
926.214,2106130000.0
926.22,2106400000.0
926.226,2106680000.0
926.232,2106950000.0
926.238,2107230000.0
926.263,2108370000.0
926.287,2109470000.0
926.337,2111900000.0
926.385,2139140000.0
926.435,2233460000.0
926.482,2378070000.0
926.532,2570670000.0
926.582,2803110000.0
926.632,3066560000.0
926.682,3348900000.0
926.732,3648060000.0
926.832,4253150000.0
926.873,4498940000.0
926.955,4977590000.0
927.037,5434140000.0
927.119,5867820000.0
927.191,6220060000.0
927.263,6549910000.0
927.407,7142480000.0
927.478,7403700000.0
927.55,7644040000.0
927.694,8070160000.0
927.837,8425590000.0
927.875,8509060000.0
927.951,8664550000.0
928.102,8931480000.0
928.253,9141610000.0
928.404,9295990000.0
928.487,9356850000.0
928.653,9424970000.0
928.819,9413920000.0
928.985,9310300000.0
929.097,9179540000.0
929.209,8991810000.0
929.32,8741660000.0
929.432,8422200000.0
929.543,8023540000.0
929.599,7794160000.0
929.655,7545970000.0
929.706,7297120000.0
929.808,6751860000.0
929.911,6148620000.0
930.013,5492980000.0
930.098,4928080000.0
930.268,3778120000.0
930.311,3506250000.0
930.353,3248960000.0
930.396,3012320000.0
930.439,2802670000.0
930.489,2596640000.0
930.491,2588720000.0
930.541,2430300000.0
930.589,2339800000.0
930.639,2317720000.0
930.687,2320070000.0
930.711,2321270000.0
930.736,2322510000.0
930.742,2322820000.0
930.748,2323110000.0
930.754,2323420000.0
930.76,2323710000.0
930.785,2324960000.0
930.809,2326170000.0
930.859,2328750000.0
930.907,2355850000.0
930.957,2457090000.0
931.005,2617690000.0
931.055,2828980000.0
931.105,3087310000.0
931.155,3384040000.0
931.205,3707760000.0
931.255,4056840000.0
931.305,4416830000.0
931.398,5102430000.0
931.584,6479530000.0
931.687,7215600000.0
931.79,7922350000.0
931.893,8583880000.0
931.996,9198610000.0
932.099,9770620000.0
932.202,10297200000.0
932.305,10779200000.0
932.407,11218000000.0
932.613,11997700000.0
932.819,12656700000.0
933.025,13218000000.0
933.033,13238500000.0
933.083,13360500000.0
933.183,13591500000.0
933.383,14004100000.0
933.583,14358600000.0
933.783,14660300000.0
933.983,14910400000.0
934.183,15110400000.0
934.276,15185600000.0
934.462,15301700000.0
934.648,15364200000.0
934.834,15371700000.0
935.02,15314800000.0
935.206,15180100000.0
935.36,15009900000.0
935.514,14761700000.0
935.564,14664800000.0
935.664,14445100000.0
935.864,13898200000.0
935.964,13559400000.0
936.064,13171900000.0
936.164,12734600000.0
936.264,12244500000.0
936.364,11703000000.0
936.464,11101200000.0
936.564,10439600000.0
936.664,9726160000.0
936.753,9045710000.0
936.842,8332300000.0
936.931,7594540000.0
937.11,6090310000.0
937.148,5769760000.0
937.224,5138710000.0
937.3,4527260000.0
937.377,3958070000.0
937.415,3697410000.0
937.453,3460050000.0
937.491,3247470000.0
937.529,3062620000.0
937.544,3001380000.0
937.594,2820800000.0
937.642,2718650000.0
937.692,2694000000.0
937.741,2696780000.0
937.766,2698200000.0
937.791,2699630000.0
937.797,2699980000.0
937.803,2700320000.0
937.809,2700660000.0
937.815,2701000000.0
937.84,2702430000.0
937.865,2703860000.0
937.915,2706750000.0
937.964,2737310000.0
938.014,2851630000.0
938.062,3034500000.0
938.112,3272910000.0
938.162,3565550000.0
938.212,3902590000.0
938.262,4273070000.0
938.312,4675460000.0
938.362,5094650000.0
938.458,5931950000.0
938.554,6794640000.0
938.746,8550040000.0
938.853,9512000000.0
939.067,11337200000.0
939.173,12188300000.0
939.28,12986200000.0
939.494,14452500000.0
939.601,15115000000.0
939.708,15733500000.0
939.921,16871100000.0
940.135,17866300000.0
940.348,18736200000.0
940.434,19055100000.0
940.605,19650400000.0
940.948,20685300000.0
941.29,21567700000.0
941.633,22310600000.0
941.975,22944600000.0
942.015,23011700000.0
942.094,23143200000.0
942.253,23394700000.0
942.57,23855700000.0
942.894,24274200000.0
943.543,25003400000.0
943.773,25199800000.0
944.233,25510100000.0
944.625,25669800000.0
945.017,25709500000.0
945.408,25617900000.0
945.478,25585300000.0
945.618,25503400000.0
945.898,25265600000.0
946.177,24909300000.0
946.457,24407100000.0
946.737,23730300000.0
947.017,22837900000.0
947.079,22607100000.0
947.203,22107900000.0
947.452,20945600000.0
947.576,20273700000.0
947.7,19540000000.0
947.825,18736500000.0
947.949,17876700000.0
948.073,16943200000.0
948.197,15940600000.0
948.322,14866400000.0
948.446,13715700000.0
948.563,12577500000.0
948.68,11389800000.0
948.914,8932380000.0
949.08,7200810000.0
949.163,6364390000.0
949.246,5559940000.0
949.288,5185340000.0
949.329,4831470000.0
949.371,4506780000.0
949.412,4216140000.0
949.446,4006700000.0
949.48,3826880000.0
949.514,3667610000.0
949.548,3548840000.0
949.58,3480570000.0
949.63,3455480000.0
949.68,3459030000.0
949.705,3460800000.0
949.73,3462580000.0
949.737,3463080000.0
949.743,3463510000.0
949.749,3463940000.0
949.755,3464360000.0
949.781,3466220000.0
949.806,3468000000.0
949.856,3471580000.0
949.906,3504040000.0
949.956,3638660000.0
950.006,3868230000.0
950.056,4154260000.0
950.106,4502880000.0
950.156,4904360000.0
950.206,5349710000.0
950.256,5830130000.0
950.306,6335670000.0
950.406,7391100000.0
950.456,7938130000.0
950.556,9046450000.0
950.756,11308400000.0
950.806,11870400000.0
950.906,12981600000.0
951.106,15120100000.0
951.307,17109500000.0
951.507,18941700000.0
951.707,20618600000.0
951.907,22163300000.0
952.107,23571500000.0
952.307,24850000000.0
952.407,25443900000.0
952.606,26551200000.0
952.805,27560300000.0
953.004,28475800000.0
953.402,30099700000.0
953.8,31494200000.0
954.008,32149100000.0
954.424,33338400000.0
954.841,34392800000.0
955.257,35340000000.0
955.609,36070500000.0
956.313,37434900000.0
957.211,38926700000.0
958.109,40285000000.0
958.812,41278100000.0
960.218,43155500000.0
960.413,43408200000.0
960.776,43958100000.0
961.14,44420800000.0
961.376,44717100000.0
961.611,45011400000.0
962.081,45596200000.0
963.021,46750200000.0
963.251,47029500000.0
963.71,47587600000.0
964.629,48690400000.0
964.89,48999200000.0
965.412,49612100000.0
966.456,50807500000.0
966.53,50889700000.0
966.678,51053900000.0
966.975,51372300000.0
967.567,51983900000.0
968.169,52545700000.0
969.372,53378300000.0
969.809,53568300000.0
970.683,53724100000.0
970.874,53655700000.0
971.065,53590800000.0
971.161,53560100000.0
971.257,53530400000.0
971.352,53366500000.0
971.448,52370500000.0
971.639,50735900000.0
971.831,49413700000.0
971.858,49244000000.0
971.913,48917400000.0
972.022,48165200000.0
972.132,47010100000.0
972.242,46005200000.0
972.268,45782200000.0
972.321,45355500000.0
972.37,44977700000.0
972.469,44274400000.0
972.473,44243800000.0
972.499,44070300000.0
972.524,43907600000.0
972.531,43862500000.0
972.537,43824300000.0
972.543,43785800000.0
972.55,43741700000.0
972.575,43585100000.0
972.601,43426000000.0
972.653,43117700000.0
972.703,42990700000.0
972.803,42794900000.0
972.806,42789000000.0
972.856,42693800000.0
972.956,42508400000.0
973.156,42155000000.0
973.216,42053300000.0
973.336,41924200000.0
973.456,42247100000.0
973.576,42577100000.0
973.626,42716800000.0
973.726,43000200000.0
973.926,43582700000.0
974.326,45169400000.0
974.726,46996100000.0
975.126,48784900000.0
975.265,49475800000.0
975.544,50616600000.0
976.101,52850300000.0
976.503,54144900000.0
976.905,55437300000.0
977.709,58241600000.0
978.544,61260800000.0
980.184,66965600000.0
981.004,69603900000.0
981.823,71525200000.0
983.462,74758400000.0
983.463,74761100000.0
983.513,74858200000.0
983.613,75052600000.0
983.813,75444200000.0
984.013,75839900000.0
984.213,76247100000.0
984.413,76660000000.0
984.613,77077800000.0
984.813,77486700000.0
985.013,77879600000.0
985.102,78055500000.0
985.28,78411100000.0
985.636,79109600000.0
986.347,80518300000.0
986.742,81322900000.0
987.532,82923600000.0
988.381,84634800000.0
990.021,87842100000.0
991.66,90755600000.0
992.48,92597100000.0
993.3,94721700000.0
994.94,99172900000.0
996.65,103184000000.0
997.505,105760000000.0
998.36,108553000000.0
999.215,111188000000.0
1000.0,113954000000.0
1000.785,115997000000.0
1001.57,117802000000.0
1001.912,118584000000.0
1002.596,120121000000.0
1003.824,122709000000.0
1005.553,125729000000.0
1007.282,128028000000.0
1009.011,129196000000.0
1009.875,129293000000.0
1010.74,129016000000.0
1012.469,127313000000.0
1013.333,125847000000.0
1014.198,124055000000.0
1014.249,123941000000.0
1014.349,123720000000.0
1014.549,123270000000.0
1014.749,122790000000.0
1014.949,122323000000.0
1015.149,121813000000.0
1015.349,121301000000.0
1015.549,120791000000.0
1015.749,120262000000.0
1015.928,119803000000.0
1016.286,118816000000.0
1017.002,116838000000.0
1017.657,114919000000.0
1018.968,110850000000.0
1019.386,109342000000.0
1020.223,105851000000.0
1020.669,103613000000.0
1021.115,100985000000.0
1021.561,97869600000.0
1022.007,94122800000.0
1022.426,89725900000.0
1022.844,84272500000.0
1023.053,81187700000.0
1023.262,77579300000.0
1023.472,73916700000.0
1023.681,69283300000.0
1023.89,64671600000.0
1024.099,59191100000.0
1024.309,53224900000.0
1024.518,47292700000.0
1024.574,45449400000.0
1024.63,43655100000.0
1024.742,40103700000.0
1024.967,32942700000.0
1025.006,31666800000.0
1025.084,29180700000.0
1025.162,26548300000.0
1025.24,23832100000.0
1025.318,21120500000.0
1025.395,18607800000.0
1025.438,17395100000.0
1025.488,16174200000.0
1025.538,15244200000.0
1025.546,15127200000.0
1025.596,14599600000.0
1025.646,14475500000.0
1025.654,14476600000.0
1025.681,14483000000.0
1025.708,14489700000.0
1025.715,14491400000.0
1025.72,14492700000.0
1025.722,14493200000.0
1025.729,14494900000.0
1025.736,14496700000.0
1025.763,14503400000.0
1025.79,14510200000.0
1025.844,14569800000.0
1025.871,14725100000.0
1025.898,15003300000.0
1025.925,15394600000.0
1025.952,15891800000.0
1025.979,16459800000.0
1026.005,17124600000.0
1026.056,18563700000.0
1026.106,20177800000.0
1026.156,21910600000.0
1026.206,23736500000.0
1026.256,25576100000.0
1026.306,27401800000.0
1026.356,29194300000.0
1026.406,30953600000.0
1026.438,32020000000.0
1026.501,34131000000.0
1026.628,38405200000.0
1026.87,46408700000.0
1027.112,54115100000.0
1027.355,61355200000.0
1027.597,68339200000.0
1027.839,74234700000.0
1028.082,80007300000.0
1028.324,85068500000.0
1028.6,90534100000.0
1028.876,95235000000.0
1029.152,99486300000.0
1029.428,103290000000.0
1029.704,106758000000.0
1030.257,113019000000.0
1030.329,113780000000.0
1030.474,115307000000.0
1030.763,118345000000.0
1031.341,124401000000.0
1032.058,131224000000.0
1032.775,137076000000.0
1033.493,142536000000.0
1033.787,144748000000.0
1034.376,148580000000.0
1035.516,155498000000.0
1035.948,159087000000.0
1036.381,163322000000.0
1036.813,168541000000.0
1037.246,174538000000.0
1038.111,186891000000.0
1038.975,199775000000.0
1039.839,210740000000.0
1040.703,220938000000.0
1040.754,221591000000.0
1040.804,222237000000.0
1040.854,222885000000.0
1040.904,223538000000.0
1040.954,224197000000.0
1041.004,224858000000.0
1041.054,225504000000.0
1041.104,226152000000.0
1041.154,226804000000.0
1041.204,227460000000.0
1041.255,228121000000.0
1041.305,228786000000.0
1041.355,229456000000.0
1041.405,230128000000.0
1041.455,230805000000.0
1041.505,231479000000.0
1041.555,232087000000.0
1041.605,232696000000.0
1041.655,233307000000.0
1041.705,233920000000.0
1041.755,234533000000.0
1041.805,235149000000.0
1041.855,235770000000.0
1041.905,236389000000.0
1041.955,237011000000.0
1042.005,237630000000.0
1042.055,238195000000.0
1042.105,238761000000.0
1042.155,239326000000.0
1042.205,239896000000.0
1042.255,240462000000.0
1042.306,241031000000.0
1042.356,241602000000.0
1042.406,242174000000.0
1042.433,242484000000.0
1042.488,243112000000.0
1042.597,244359000000.0
1042.816,246867000000.0
1043.253,252061000000.0
1044.128,263085000000.0
1044.162,263520000000.0
1044.229,264394000000.0
1044.364,266151000000.0
1044.634,269651000000.0
1045.173,276979000000.0
1045.892,287795000000.0
1047.33,308640000000.0
1047.621,312282000000.0
1048.202,319687000000.0
1048.81,328691000000.0
1050.0,348386000000.0
1050.595,356048000000.0
1051.19,362467000000.0
1052.38,374420000000.0
1054.76,395925000000.0
1055.0,398426000000.0
1055.48,403331000000.0
1056.441,410215000000.0
1056.922,411573000000.0
1057.402,412277000000.0
1058.363,415771000000.0
1058.844,420025000000.0
1059.324,426230000000.0
1060.0,437975000000.0
1060.676,453422000000.0
1061.352,472283000000.0
1061.689,483780000000.0
1062.027,496695000000.0
1062.365,511674000000.0
1062.703,527875000000.0
1063.379,563483000000.0
1064.055,600791000000.0
1065.0,646943000000.0
1065.945,689177000000.0
1066.891,732934000000.0
1067.363,753730000000.0
1067.836,772214000000.0
1068.309,786756000000.0
1068.781,795971000000.0
1069.254,799908000000.0
1069.727,800119000000.0
1070.0,799496000000.0
1070.547,798653000000.0
1071.094,800553000000.0
1071.641,805775000000.0
1072.734,818499000000.0
1073.828,818799000000.0
1074.922,804244000000.0
1075.0,803000000000.0
1075.156,800910000000.0
1075.469,796865000000.0
1076.094,794819000000.0
1076.406,797357000000.0
1076.719,803137000000.0
1077.031,811094000000.0
1077.344,824282000000.0
1077.656,840773000000.0
1077.969,860797000000.0
1078.281,886439000000.0
1078.594,914482000000.0
1078.906,947948000000.0
1079.219,987245000000.0
1079.531,1032440000000.0
1079.844,1082630000000.0
1080.0,1109360000000.0
1080.312,1165890000000.0
1080.625,1229090000000.0
1080.938,1297150000000.0
1081.538,1436310000000.0
1082.138,1587920000000.0
1082.739,1746340000000.0
1083.077,1836610000000.0
1083.753,2017970000000.0
1084.43,2191780000000.0
1085.106,2353510000000.0
1086.458,2675180000000.0
1086.538,2694720000000.0
1086.697,2732580000000.0
1087.016,2810780000000.0
1087.652,2964380000000.0
1088.926,3291800000000.0
1090.0,3587850000000.0
1091.074,3873830000000.0
1093.223,4480280000000.0
1094.112,4761520000000.0
1095.0,5060250000000.0
1096.777,5686400000000.0
1098.554,6289390000000.0
1100.0,6815950000000.0
1101.446,7381590000000.0
1102.893,7942240000000.0
1105.0,8713480000000.0
1107.107,9525030000000.0
1108.554,10018900000000.0
1110.0,10409800000000.0
1112.893,11101100000000.0
1113.946,11264400000000.0
1115.0,11428100000000.0
1117.107,11807600000000.0
1118.554,11991400000000.0
1120.0,12034200000000.0
1121.446,12010900000000.0
1122.893,11886800000000.0
1123.946,11641300000000.0
1125.0,11383700000000.0
1126.054,10964600000000.0
1127.107,10532400000000.0
1128.161,9950120000000.0
1129.215,9345190000000.0
1130.0,8815040000000.0
1130.785,8321590000000.0
1131.154,8087210000000.0
1131.892,7594440000000.0
1132.308,7332220000000.0
1133.14,6816750000000.0
1134.805,5747310000000.0
1136.154,4902920000000.0
1136.829,4533400000000.0
1137.503,4134660000000.0
1138.178,3771630000000.0
1138.853,3456860000000.0
1139.527,3123410000000.0
1140.0,2909780000000.0
1140.237,2815210000000.0
1140.473,2726860000000.0
1140.946,2567620000000.0
1141.419,2399170000000.0
1141.893,2247860000000.0
1142.366,2119540000000.0
1142.839,2008500000000.0
1143.312,1893360000000.0
1143.785,1786590000000.0
1144.258,1694250000000.0
1144.629,1631360000000.0
1145.0,1577700000000.0
1145.742,1467340000000.0
1146.483,1382540000000.0
1147.225,1313350000000.0
1147.967,1250900000000.0
1148.708,1202000000000.0
1149.354,1164810000000.0
1150.0,1132530000000.0
1150.646,1106370000000.0
1151.292,1082360000000.0
1152.583,1041430000000.0
1153.875,1006420000000.0
1155.166,980055000000.0
1156.458,955044000000.0
1157.749,934095000000.0
1159.041,918286000000.0
1161.624,889569000000.0
1162.915,880209000000.0
1164.207,870743000000.0
1165.769,862761000000.0
1168.894,853670000000.0
1172.019,849431000000.0
1175.144,850078000000.0
1178.269,854178000000.0
1181.394,862431000000.0
1181.538,862925000000.0
1181.826,863975000000.0
1182.401,866174000000.0
1183.553,871028000000.0
