Wavelength,Flux
900.0,132709000.0
903.442,144884000.0
904.998,150713000.0
906.554,156752000.0
908.11,163009000.0
909.667,169495000.0
910.703,173938000.0
911.74,178491000.0
911.84,178936000.0
912.0,179649000.0
912.31,181039000.0
912.779,183160000.0
913.717,187469000.0
914.335,190362000.0
915.329,195090000.0
915.824,197485000.0
915.892,197817000.0
916.028,198845000.0
916.3,199858000.0
916.429,200449000.0
916.686,203112000.0
916.944,204563000.0
917.181,204189000.0
917.3,204816000.0
917.418,207724000.0
917.448,208474000.0
917.507,209767000.0
917.626,211438000.0
917.745,212191000.0
917.863,211457000.0
918.101,208847000.0
918.129,208993000.0
918.186,209284000.0
918.3,211060000.0
918.357,213748000.0
918.413,216183000.0
918.527,219750000.0
918.641,222035000.0
918.755,223480000.0
918.869,224132000.0
918.982,223441000.0
919.004,223041000.0
919.054,221712000.0
919.154,217188000.0
919.204,215154000.0
919.254,214825000.0
919.351,215335000.0
919.448,215847000.0
919.545,219360000.0
919.642,226245000.0
919.739,231342000.0
919.836,234841000.0
919.933,237313000.0
920.03,239190000.0
920.224,241789000.0
920.392,242448000.0
920.56,239883000.0
920.728,229979000.0
920.896,223600000.0
920.929,223784000.0
920.963,223967000.0
921.03,224335000.0
921.098,225049000.0
921.165,229721000.0
921.233,236698000.0
921.3,242982000.0
921.367,248047000.0
921.435,252050000.0
921.569,257581000.0
921.704,261392000.0
921.839,264383000.0
922.109,268684000.0
922.117,268788000.0
922.167,269349000.0
922.267,270212000.0
922.467,270303000.0
922.506,269900000.0
922.584,268420000.0
922.662,265770000.0
922.74,261548000.0
922.818,254993000.0
922.895,246523000.0
922.992,236773000.0
923.041,235562000.0
923.089,235828000.0
923.114,235971000.0
923.138,236108000.0
923.144,236142000.0
923.15,236177000.0
923.156,236211000.0
923.162,236245000.0
923.187,236388000.0
923.211,236525000.0
923.261,236828000.0
923.308,238605000.0
923.358,243573000.0
923.405,249993000.0
923.455,256811000.0
923.555,268856000.0
923.605,273567000.0
923.655,277801000.0
923.755,284373000.0
923.794,286460000.0
923.872,289988000.0
924.028,295687000.0
924.183,300030000.0
924.436,305540000.0
924.688,309964000.0
924.939,313372000.0
925.189,315149000.0
925.314,314908000.0
925.439,313312000.0
925.579,308874000.0
925.649,304964000.0
925.719,299783000.0
925.789,292851000.0
925.859,284097000.0
925.929,273662000.0
925.97,267268000.0
926.052,256238000.0
926.067,255142000.0
926.117,253707000.0
926.165,253990000.0
926.189,254137000.0
926.214,254290000.0
926.22,254326000.0
926.226,254363000.0
926.232,254400000.0
926.238,254437000.0
926.263,254590000.0
926.287,254736000.0
926.337,255054000.0
926.385,257107000.0
926.435,262917000.0
926.482,270756000.0
926.532,279517000.0
926.632,296325000.0
926.732,310284000.0
926.832,321493000.0
926.873,325244000.0
926.955,331778000.0
927.119,341567000.0
927.263,347917000.0
927.407,353028000.0
927.694,361139000.0
927.875,365441000.0
928.238,372995000.0
928.487,377642000.0
928.986,385320000.0
929.097,386606000.0
929.32,388322000.0
929.513,388384000.0
929.706,385990000.0
929.803,383370000.0
929.899,379284000.0
929.996,373232000.0
930.092,364684000.0
930.098,364091000.0
930.148,358379000.0
930.248,344124000.0
930.348,326630000.0
930.448,306878000.0
930.491,298526000.0
930.534,290807000.0
930.577,285116000.0
930.589,284183000.0
930.639,282666000.0
930.687,282982000.0
930.711,283143000.0
930.736,283312000.0
930.742,283352000.0
930.748,283392000.0
930.754,283433000.0
930.76,283473000.0
930.785,283641000.0
930.809,283803000.0
930.859,284151000.0
930.907,286341000.0
930.957,292900000.0
931.005,302276000.0
931.055,312981000.0
931.155,335041000.0
931.255,355491000.0
931.355,373171000.0
931.398,379776000.0
931.484,391410000.0
931.57,401054000.0
931.657,409147000.0
931.79,419287000.0
931.923,427520000.0
932.19,440137000.0
932.457,449622000.0
932.724,457522000.0
933.033,465639000.0
933.651,480045000.0
934.276,493237000.0
935.514,514650000.0
935.823,517618000.0
936.133,518025000.0
936.288,516544000.0
936.443,513280000.0
936.597,507509000.0
936.752,498211000.0
936.753,498133000.0
936.803,494130000.0
936.903,484099000.0
937.003,471499000.0
937.103,455795000.0
937.148,447536000.0
937.238,428668000.0
937.328,407060000.0
937.419,384086000.0
937.544,352772000.0
937.593,342280000.0
937.642,335574000.0
937.691,333794000.0
937.74,334169000.0
937.766,334372000.0
937.791,334567000.0
937.797,334614000.0
937.803,334661000.0
937.809,334708000.0
937.815,334755000.0
937.84,334951000.0
937.865,335146000.0
937.915,335546000.0
937.964,338116000.0
938.014,345889000.0
938.062,357098000.0
938.112,370174000.0
938.212,398221000.0
938.412,452380000.0
938.458,463431000.0
938.55,483328000.0
938.642,500495000.0
938.734,515748000.0
938.853,532092000.0
938.972,545701000.0
939.091,557064000.0
939.329,574785000.0
939.566,588388000.0
939.804,599366000.0
940.28,617055000.0
940.434,622005000.0
940.742,631265000.0
941.359,648323000.0
942.015,665103000.0
942.894,686572000.0
943.773,707583000.0
944.625,727461000.0
945.478,746442000.0
946.279,762041000.0
947.079,772081000.0
947.479,772025000.0
947.879,764446000.0
948.08,755737000.0
948.28,741889000.0
948.48,721301000.0
948.68,691970000.0
948.78,672967000.0
948.88,650784000.0
948.98,625111000.0
949.08,596345000.0
949.13,580542000.0
949.23,547026000.0
949.43,478699000.0
949.48,463444000.0
949.53,449974000.0
949.58,441467000.0
949.63,439535000.0
949.68,440033000.0
949.705,440283000.0
949.73,440534000.0
949.737,440604000.0
949.743,440663000.0
949.749,440724000.0
949.755,440784000.0
949.781,441044000.0
949.806,441295000.0
949.856,441799000.0
949.906,444749000.0
949.956,454345000.0
950.006,469002000.0
950.056,485529000.0
950.156,521953000.0
950.256,559883000.0
950.406,614819000.0
950.556,663053000.0
950.706,705017000.0
950.806,729028000.0
950.906,750176000.0
951.106,786121000.0
951.305,814788000.0
951.505,837829000.0
951.705,856665000.0
952.104,885610000.0
952.407,903195000.0
953.013,931993000.0
953.618,956117000.0
954.008,970029000.0
954.787,996206000.0
955.609,1022860000.0
957.211,1074060000.0
958.812,1125250000.0
960.413,1177160000.0
960.776,1189270000.0
961.14,1201370000.0
961.376,1209270000.0
961.611,1217170000.0
962.081,1233120000.0
963.021,1265510000.0
963.251,1273520000.0
963.71,1289640000.0
964.629,1321810000.0
964.89,1331050000.0
965.412,1349610000.0
966.456,1387220000.0
966.53,1389920000.0
966.678,1395350000.0
966.975,1406220000.0
967.567,1428150000.0
968.169,1450590000.0
969.372,1495860000.0
969.809,1512380000.0
970.683,1545040000.0
971.448,1570630000.0
971.858,1576200000.0
972.268,1573810000.0
972.318,1572940000.0
972.37,1572040000.0
972.473,1570290000.0
972.499,1569860000.0
972.524,1569440000.0
972.531,1569330000.0
972.537,1569230000.0
972.543,1569130000.0
972.55,1569020000.0
972.575,1568610000.0
972.601,1568190000.0
972.653,1567340000.0
972.703,1567860000.0
972.803,1569320000.0
972.806,1569370000.0
972.856,1570110000.0
972.956,1571590000.0
973.156,1574580000.0
973.216,1575480000.0
973.336,1577940000.0
973.576,1591360000.0
973.626,1594180000.0
973.726,1599870000.0
973.926,1611370000.0
974.326,1637760000.0
975.126,1691500000.0
975.265,1700830000.0
975.544,1717290000.0
976.101,1749390000.0
976.905,1792180000.0
978.512,1876290000.0
978.544,1877930000.0
978.608,1881210000.0
978.735,1887670000.0
978.989,1900480000.0
979.498,1926510000.0
980.184,1962110000.0
981.556,2032170000.0
981.823,2045670000.0
982.357,2072880000.0
983.424,2128090000.0
983.463,2130110000.0
983.54,2134140000.0
983.694,2142220000.0
984.003,2158430000.0
984.62,2191210000.0
985.102,2217100000.0
986.065,2268810000.0
986.742,2305610000.0
988.095,2380910000.0
988.381,2397030000.0
988.953,2429620000.0
990.021,2491750000.0
991.66,2589710000.0
993.3,2692430000.0
996.58,2907590000.0
996.65,2912320000.0
996.79,2921840000.0
997.07,2940940000.0
997.63,2979680000.0
998.75,3058340000.0
1000.0,3147880000.0
1001.912,3288380000.0
1003.824,3433330000.0
1005.553,3569220000.0
1007.282,3708400000.0
1009.011,3851800000.0
1010.74,3997620000.0
1012.469,4144930000.0
1014.199,4289670000.0
1015.928,4419980000.0
1017.657,4527710000.0
1018.521,4566700000.0
1019.386,4584570000.0
1020.25,4572970000.0
1021.115,4518060000.0
1021.979,4401000000.0
1022.844,4199690000.0
1023.276,4064280000.0
1023.708,3898240000.0
1024.141,3676070000.0
1024.573,3382590000.0
1024.624,3340670000.0
1024.674,3298590000.0
1024.724,3255010000.0
1024.774,3210310000.0
1024.824,3163220000.0
1024.874,3114260000.0
1024.924,3062100000.0
1024.974,3008090000.0
1025.006,2973360000.0
1025.069,2901430000.0
1025.196,2733010000.0
1025.259,2637410000.0
1025.322,2536130000.0
1025.438,2349180000.0
1025.546,2194550000.0
1025.6,2152340000.0
1025.654,2145480000.0
1025.681,2146550000.0
1025.708,2147650000.0
1025.715,2147940000.0
1025.72,2148150000.0
1025.722,2148230000.0
1025.729,2148520000.0
1025.736,2148800000.0
1025.763,2149910000.0
1025.79,2151030000.0
1025.844,2157010000.0
1025.871,2169880000.0
1025.898,2192820000.0
1025.925,2224050000.0
1025.952,2261980000.0
1026.005,2346980000.0
1026.056,2433670000.0
1026.106,2521360000.0
1026.156,2608220000.0
1026.206,2694710000.0
1026.256,2777640000.0
1026.306,2855870000.0
1026.356,2929930000.0
1026.406,2999140000.0
1026.438,3040040000.0
1026.501,3115910000.0
1026.628,3264460000.0
1026.749,3391620000.0
1026.87,3509540000.0
1026.92,3556930000.0
1026.97,3604560000.0
1027.02,3648830000.0
1027.07,3688890000.0
1027.12,3728320000.0
1027.17,3766880000.0
1027.22,3805680000.0
1027.27,3844730000.0
1027.32,3883680000.0
1027.37,3922880000.0
1027.421,3962000000.0
1027.471,4001430000.0
1027.521,4037860000.0
1027.571,4068650000.0
1027.621,4099200000.0
1027.671,4129140000.0
1027.721,4158950000.0
1027.771,4188820000.0
1027.821,4218490000.0
1027.871,4248320000.0
1027.921,4278470000.0
1027.971,4308970000.0
1028.021,4337730000.0
1028.071,4363490000.0
1028.121,4388990000.0
1028.171,4414490000.0
1028.221,4440160000.0
1028.271,4466070000.0
1028.321,4492340000.0
1028.371,4518980000.0
1028.422,4546070000.0
1028.472,4573610000.0
1028.522,4599310000.0
1028.572,4622030000.0
1028.6,4634900000.0
1028.657,4660720000.0
1028.77,4712350000.0
1028.996,4818740000.0
1029.45,5003980000.0
1029.903,5175350000.0
1030.329,5323370000.0
1031.182,5609250000.0
1032.058,5871500000.0
1032.934,6086140000.0
1033.787,6269610000.0
1035.492,6579680000.0
1035.516,6584330000.0
1035.566,6594220000.0
1035.616,6604100000.0
1035.666,6614040000.0
1035.716,6623960000.0
1035.766,6633850000.0
1035.816,6643770000.0
1035.866,6653700000.0
1035.916,6663650000.0
1035.966,6673600000.0
1036.016,6683650000.0
1036.067,6693880000.0
1036.117,6704170000.0
1036.167,6714450000.0
1036.217,6724730000.0
1036.267,6735020000.0
1036.317,6745290000.0
1036.367,6755570000.0
1036.417,6765830000.0
1036.467,6776140000.0
1036.517,6786560000.0
1036.567,6797210000.0
1036.617,6807870000.0
1036.667,6818540000.0
1036.717,6829290000.0
1036.767,6840020000.0
1036.817,6850770000.0
1036.867,6861610000.0
1036.917,6872360000.0
1036.967,6883210000.0
1037.017,6893870000.0
1037.068,6904190000.0
1037.118,6914540000.0
1037.168,6924910000.0
1037.218,6935300000.0
1037.246,6941170000.0
1037.303,6952930000.0
1037.416,6976520000.0
1037.642,7021180000.0
1038.096,7107710000.0
1038.975,7271670000.0
1040.704,7570970000.0
1042.433,7867520000.0
1044.162,8163680000.0
1045.892,8467660000.0
1047.621,8780860000.0
1048.81,9000470000.0
1050.0,9222650000.0
1052.38,9677070000.0
1055.0,10200600000.0
1057.62,10737900000.0
1060.0,11256500000.0
1064.76,12388100000.0
1065.0,12447300000.0
1065.48,12566300000.0
1066.441,12806800000.0
1068.363,13297500000.0
1070.0,13716500000.0
1073.273,14595200000.0
1075.0,15078000000.0
1078.453,16089300000.0
1080.0,16579800000.0
1081.538,17082900000.0
1083.077,17594100000.0
1086.155,18632500000.0
1086.538,18765600000.0
1087.304,19034200000.0
1088.835,19582700000.0
1090.0,20009500000.0
1092.33,20879800000.0
1095.0,21915800000.0
1097.67,23005200000.0
1100.0,23990500000.0
1104.661,26054100000.0
1105.0,26210900000.0
1105.679,26527700000.0
1107.036,27173100000.0
1109.751,28487300000.0
1110.0,28608600000.0
1110.498,28853400000.0
1111.494,29346900000.0
1113.486,30354800000.0
1115.0,31140800000.0
1118.027,32748900000.0
1120.0,33756200000.0
1123.945,35784200000.0
1125.0,36329200000.0
1127.109,37384300000.0
1130.0,38710500000.0
1131.154,39207200000.0
1132.308,39663000000.0
1134.616,40499400000.0
1136.154,40975300000.0
1139.23,41718100000.0
1140.0,41829300000.0
1141.539,42053300000.0
1144.617,42384800000.0
1145.0,42433600000.0
1145.766,42462500000.0
1147.297,42589500000.0
1150.0,42798700000.0
1152.703,43035300000.0
1155.406,43250200000.0
1158.109,43439300000.0
1160.812,43660400000.0
1163.516,43832400000.0
1165.769,44025300000.0
1170.276,44531000000.0
1174.783,45298600000.0
1179.29,46449100000.0
1181.538,47215400000.0
1185.628,48972200000.0
1189.718,51002800000.0
1191.767,51954900000.0
1193.816,52780300000.0
1195.866,53432600000.0
1197.915,53962300000.0
1199.964,54417300000.0
1202.014,54779800000.0
1204.063,54905900000.0
1205.088,54757200000.0
1206.113,54480800000.0
1207.137,53928600000.0
1208.162,53125600000.0
1208.212,53083800000.0
1208.262,53043000000.0
1208.312,53003200000.0
1208.362,52964400000.0
1208.412,52926400000.0
1208.462,52889000000.0
1208.512,52847300000.0
1208.562,52790900000.0
1208.612,52736000000.0
1208.662,52683100000.0
1208.713,52632100000.0
1208.763,52582500000.0
1208.813,52534200000.0
1208.863,52486900000.0
1208.913,52440700000.0
1208.963,52395600000.0
1209.013,52343500000.0
1209.063,52269500000.0
1209.113,52197600000.0
1209.163,52128000000.0
1209.213,52060400000.0
1209.263,51994900000.0
1209.313,51931400000.0
1209.363,51869400000.0
1209.413,51810200000.0
1209.463,51754300000.0
1209.513,51695200000.0
1209.563,51624600000.0
1209.613,51556300000.0
1209.663,51488500000.0
1209.714,51422400000.0
1209.764,51358300000.0
1209.814,51297200000.0
1209.864,51238300000.0
1209.914,51181100000.0
1209.964,51125400000.0
1210.014,51068600000.0
1210.064,51006200000.0
1210.114,50945600000.0
1210.164,50886100000.0
1210.211,50831700000.0
1210.305,50727600000.0
1210.494,50536700000.0
1210.871,49952000000.0
1211.625,48765300000.0
1212.261,47880300000.0
1213.534,46440900000.0
1214.31,45971300000.0
1214.822,45802700000.0
1215.078,45556900000.0
1215.335,44577700000.0
1215.399,44035700000.0
1215.463,43428500000.0
1215.513,43051600000.0
1215.563,42927100000.0
1215.591,42935100000.0
1215.623,42952900000.0
1215.655,42970800000.0
1215.663,42975200000.0
1215.67,42979100000.0
1215.679,42984100000.0
1215.687,42988600000.0
1215.719,43006500000.0
1215.751,43024300000.0
1215.815,43163400000.0
1215.879,43725000000.0
1215.943,44492500000.0
1216.007,45231700000.0
1216.135,46443400000.0
1216.262,47360900000.0
1216.39,48142000000.0
1216.52,48912900000.0
1216.78,50159800000.0
1217.032,51560200000.0
1217.536,54340300000.0
1218.544,60038700000.0
1219.081,62632700000.0
1219.618,65477300000.0
1220.156,67894400000.0
1220.693,69832900000.0
1221.131,71553400000.0
1221.569,73253600000.0
1222.007,74067800000.0
1222.882,76317700000.0
1223.18,77255300000.0
1223.775,79001000000.0
1224.966,81866200000.0
1225.229,82362900000.0
1225.756,83266400000.0
1226.809,84739900000.0
1227.279,85336300000.0
1228.219,86587500000.0
1229.328,88158900000.0
1231.378,91235600000.0
1233.427,94313600000.0
1235.476,97302500000.0
1237.526,100217000000.0
1239.575,103002000000.0
1241.625,105796000000.0
1245.725,111669000000.0
1249.825,117895000000.0
1250.812,119333000000.0
1252.786,122513000000.0
1256.733,128926000000.0
1260.0,134795000000.0
1263.267,141373000000.0
1265.0,144827000000.0
1268.466,151430000000.0
1270.0,154631000000.0
1273.068,161076000000.0
1275.0,165049000000.0
1278.863,174094000000.0
1280.0,176715000000.0
1282.273,181854000000.0
1285.0,187582000000.0
1287.727,193647000000.0
1290.0,198891000000.0
1294.547,210261000000.0
1295.0,211465000000.0
1295.906,213896000000.0
1297.719,218714000000.0
1300.0,224707000000.0
1305.0,237467000000.0
1310.0,250816000000.0
1315.0,264890000000.0
1320.0,279659000000.0
1325.0,295217000000.0
1330.0,311686000000.0
1335.0,328922000000.0
1340.0,346663000000.0
1345.0,364942000000.0
1350.0,384061000000.0
1355.0,404280000000.0
1360.0,425072000000.0
1365.0,446783000000.0
1370.0,469582000000.0
1374.231,489350000000.0
1378.462,509688000000.0
1379.231,513470000000.0
1380.0,517277000000.0
1381.538,524971000000.0
1384.614,540650000000.0
1385.0,542641000000.0
1385.771,546641000000.0
1387.314,554705000000.0
1390.0,568957000000.0
1395.0,596306000000.0
1400.0,624745000000.0
1405.0,654372000000.0
1410.0,685344000000.0
1415.0,717477000000.0
1420.0,750582000000.0
1425.0,784912000000.0
1430.0,820543000000.0
1435.0,857087000000.0
1440.0,894318000000.0
1445.0,932520000000.0
1450.0,971903000000.0
1455.0,1012450000000.0
1460.0,1054370000000.0
1465.0,1097660000000.0
1470.0,1143230000000.0
1473.462,1176100000000.0
1476.923,1210050000000.0
1478.462,1225520000000.0
1480.0,1241260000000.0
1483.076,1273530000000.0
1485.0,1294260000000.0
1488.848,1336800000000.0
1490.0,1349740000000.0
1492.304,1375820000000.0
1495.0,1406430000000.0
1500.0,1463140000000.0
1505.0,1520450000000.0
1510.0,1580390000000.0
1515.0,1644460000000.0
1520.0,1711590000000.0
1525.0,1777740000000.0
1530.0,1838690000000.0
1535.0,1894420000000.0
1540.0,1949250000000.0
1545.0,2007910000000.0
1550.0,2072750000000.0
1555.0,2143520000000.0
1560.0,2217730000000.0
1565.0,2291710000000.0
1570.0,2362810000000.0
1572.692,2399860000000.0
1575.385,2436370000000.0
1577.692,2467700000000.0
1580.0,2499420000000.0
1584.616,2565300000000.0
1585.0,2571020000000.0
1585.768,2582510000000.0
1587.304,2605950000000.0
1590.0,2648690000000.0
1595.0,2734370000000.0
1600.0,2829330000000.0
1605.0,2934530000000.0
1610.0,3050880000000.0
1615.0,3179270000000.0
1620.0,3320680000000.0
1625.0,3476590000000.0
1630.0,3648400000000.0
1635.0,3837040000000.0
1640.0,4044460000000.0
1645.0,4273070000000.0
1650.0,4525930000000.0
1655.0,4805300000000.0
1660.0,5120270000000.0
1665.0,5477800000000.0
1667.5,5674790000000.0
1670.0,5902530000000.0
1671.923,6087800000000.0
1673.846,6289810000000.0
1676.923,6665230000000.0
1678.461,6873580000000.0
1680.0,7119190000000.0
1681.539,7380350000000.0
1683.077,7657960000000.0
1684.616,7981400000000.0
1685.0,8070840000000.0
1685.769,8250220000000.0
1687.306,8617200000000.0
1688.653,8987030000000.0
1690.0,9415070000000.0
1692.694,10364300000000.0
1693.847,10845000000000.0
1695.0,11383800000000.0
1697.306,12516100000000.0
1698.653,13294000000000.0
1700.0,14205800000000.0
1702.694,16150300000000.0
1703.847,17137500000000.0
1705.0,18274500000000.0
1707.306,20612100000000.0
1708.653,22169100000000.0
1710.0,23952400000000.0
1712.694,27682000000000.0
1713.847,29534000000000.0
1715.0,31592900000000.0
1717.306,35719100000000.0
1718.653,38415300000000.0
1720.0,41469600000000.0
1722.694,47559200000000.0
1723.847,50450200000000.0
1725.0,53597800000000.0
1727.306,59675800000000.0
1728.653,63506300000000.0
1730.0,67736200000000.0
1732.694,75872200000000.0
1735.0,83600400000000.0
1737.306,91120400000000.0
1740.0,100686000000000.0
1742.694,109950000000000.0
1745.0,118437000000000.0
1749.611,134793000000000.0
1750.0,136267000000000.0
1750.777,139099000000000.0
1752.332,144321000000000.0
1755.441,155576000000000.0
1758.551,165668000000000.0
1761.154,174321000000000.0
1766.361,190270000000000.0
1771.567,204942000000000.0
1772.308,206862000000000.0
1773.79,210765000000000.0
1776.753,218340000000000.0
1782.68,232243000000000.0
1788.607,244818000000000.0
1794.533,256211000000000.0
1800.46,266597000000000.0
1806.387,275999000000000.0
1818.24,292887000000000.0
1821.539,297238000000000.0
1828.136,305513000000000.0
1841.33,320938000000000.0
1854.525,335262000000000.0
1867.719,348899000000000.0
1870.769,351991000000000.0
1876.869,358076000000000.0
1889.069,370045000000000.0
1901.268,381780000000000.0
1913.468,393321000000000.0
1920.0,399445000000000.0
1933.064,411556000000000.0
1946.128,423540000000000.0
1959.192,435376000000000.0
1969.231,444386000000000.0
1979.27,453297000000000.0
1989.309,462133000000000.0
1999.348,470883000000000.0
2009.387,479501000000000.0
