Wavelength,Flux
900.0,2949960.0
903.442,3267660.0
904.998,3421340.0
906.554,3581630.0
908.11,3748790.0
909.667,3923180.0
910.703,4043320.0
911.74,4166950.0
911.84,4179060.0
912.0,4198490.0
912.31,4236370.0
912.779,4294280.0
913.717,4412280.0
914.335,4492120.0
915.329,4622050.0
915.824,4688280.0
915.892,4697450.0
916.028,4750330.0
916.164,4797750.0
916.297,4756740.0
916.429,4770400.0
916.495,4779480.0
916.561,4794170.0
916.628,4868100.0
916.694,4950690.0
916.76,5002370.0
916.826,5032080.0
916.892,5027400.0
916.958,4978670.0
917.025,4883600.0
917.058,4859850.0
917.091,4861740.0
917.157,4870950.0
917.181,4874320.0
917.231,4881300.0
917.331,4923360.0
917.381,5040130.0
917.431,5174650.0
917.448,5214870.0
917.498,5316190.0
917.548,5394130.0
917.598,5454330.0
917.648,5494570.0
917.698,5514900.0
917.748,5511800.0
917.798,5476720.0
917.848,5398760.0
917.898,5273110.0
917.998,4997270.0
918.063,4998910.0
918.129,5008280.0
918.26,5035330.0
918.391,5572740.0
918.522,6056350.0
918.588,6216550.0
918.653,6340100.0
918.719,6424680.0
918.785,6474160.0
918.85,6482290.0
918.916,6434510.0
918.96,6355400.0
919.004,6222660.0
919.048,6040130.0
919.092,5810820.0
919.137,5531120.0
919.181,5273160.0
919.225,5171740.0
919.269,5173850.0
919.351,5185920.0
919.433,5198030.0
919.515,5299080.0
919.597,5871970.0
919.678,6453500.0
919.76,6906780.0
919.842,7244130.0
919.924,7489270.0
920.006,7674780.0
920.088,7803280.0
920.169,7885540.0
920.251,7919840.0
920.333,7891300.0
920.415,7761810.0
920.497,7519050.0
920.528,7386180.0
920.56,7228330.0
920.592,7050170.0
920.623,6839490.0
920.686,6358280.0
920.749,5823640.0
920.781,5586030.0
920.812,5447230.0
920.844,5412200.0
920.876,5415650.0
920.939,5425350.0
920.963,5429110.0
921.013,5436820.0
921.113,5492400.0
921.163,5775500.0
921.213,6232520.0
921.313,7122850.0
921.363,7514000.0
921.413,7866610.0
921.463,8175010.0
921.513,8443780.0
921.563,8679420.0
921.613,8881990.0
921.663,9059560.0
921.763,9349360.0
921.863,9567900.0
921.963,9736050.0
922.063,9854810.0
922.117,9898020.0
922.226,9921470.0
922.28,9889010.0
922.334,9830190.0
922.388,9739460.0
922.443,9606860.0
922.506,9396830.0
922.569,9111540.0
922.633,8747230.0
922.696,8312620.0
922.76,7806270.0
922.823,7242090.0
922.886,6656970.0
922.895,6576100.0
922.945,6102240.0
922.992,5810790.0
923.042,5758250.0
923.089,5765800.0
923.114,5769880.0
923.138,5773780.0
923.144,5774750.0
923.15,5775740.0
923.156,5776710.0
923.162,5777690.0
923.187,5781770.0
923.211,5785690.0
923.261,5794080.0
923.308,5862660.0
923.358,6202520.0
923.405,6673340.0
923.455,7167640.0
923.555,8144430.0
923.655,9056960.0
923.755,9879290.0
923.794,10168900.0
923.872,10694400.0
923.95,11156300.0
924.028,11561900.0
924.183,12247300.0
924.338,12807800.0
924.436,13101700.0
924.534,13357000.0
924.633,13520000.0
924.688,13582000.0
924.798,13656500.0
924.939,13639700.0
925.009,13576900.0
925.08,13469100.0
925.15,13313000.0
925.189,13201800.0
925.267,12921000.0
925.346,12560100.0
925.424,12116100.0
925.501,11587700.0
925.579,10962800.0
925.657,10268700.0
925.734,9526530.0
925.812,8763880.0
925.89,7984540.0
925.967,7193900.0
925.97,7165070.0
926.02,6645500.0
926.067,6328150.0
926.117,6278520.0
926.165,6286880.0
926.189,6291110.0
926.214,6295520.0
926.22,6296570.0
926.226,6297630.0
926.232,6298690.0
926.238,6299750.0
926.263,6304160.0
926.287,6308410.0
926.337,6317370.0
926.385,6384790.0
926.435,6753480.0
926.482,7268210.0
926.532,7805700.0
926.632,8884610.0
926.832,11032800.0
926.873,11468000.0
926.955,12306800.0
927.037,13094900.0
927.119,13835700.0
927.263,14997200.0
927.335,15520400.0
927.407,15989800.0
927.551,16778900.0
927.695,17412600.0
927.839,17929800.0
927.875,18041900.0
927.948,18243100.0
928.093,18574300.0
928.238,18832800.0
928.383,19026500.0
928.487,19126200.0
928.694,19225900.0
928.901,19169400.0
928.999,19071500.0
929.097,18922500.0
929.195,18704000.0
929.293,18407200.0
929.391,18030300.0
929.488,17560900.0
929.586,17019900.0
929.684,16356100.0
929.706,16194400.0
929.756,15807400.0
929.856,14949300.0
929.956,13998000.0
930.056,12970800.0
930.098,12509700.0
930.182,11577900.0
930.351,9691430.0
930.491,8094350.0
930.54,7524100.0
930.589,7163030.0
930.638,7121860.0
930.687,7131470.0
930.711,7136240.0
930.736,7141190.0
930.742,7142370.0
930.748,7143560.0
930.754,7144760.0
930.76,7145950.0
930.785,7150890.0
930.809,7155660.0
930.859,7165660.0
930.907,7226430.0
930.957,7622890.0
931.005,8210860.0
931.055,8810320.0
931.155,10019800.0
931.355,12451600.0
931.398,12977300.0
931.484,14004400.0
931.656,15923600.0
931.79,17257100.0
931.924,18415500.0
932.058,19408700.0
932.191,20244800.0
932.325,20949200.0
932.459,21531300.0
932.593,22039400.0
932.86,22861500.0
933.033,23275500.0
933.206,23649900.0
933.551,24231600.0
933.897,24653700.0
934.242,24956200.0
934.276,24980400.0
934.344,25025900.0
934.479,25105800.0
934.75,25214900.0
935.021,25237700.0
935.292,25141100.0
935.514,24949100.0
935.736,24647000.0
935.957,24160700.0
936.179,23442300.0
936.401,22381200.0
936.577,21206100.0
936.753,19701400.0
936.929,17832100.0
937.105,15674100.0
937.148,15104500.0
937.234,13959800.0
937.406,11662800.0
937.544,9791100.0
937.593,9112830.0
937.642,8685880.0
937.691,8646380.0
937.74,8657890.0
937.766,8664010.0
937.791,8669930.0
937.797,8671340.0
937.803,8672770.0
937.809,8674200.0
937.815,8675610.0
937.84,8681530.0
937.865,8687430.0
937.915,8699350.0
937.964,8762690.0
938.014,9232020.0
938.062,9930550.0
938.112,10640400.0
938.212,12080200.0
938.412,14976400.0
938.458,15647600.0
938.55,16963000.0
938.734,19422500.0
938.853,20859900.0
938.972,22133700.0
939.091,23250400.0
939.21,24217100.0
939.329,25063500.0
939.448,25782200.0
939.566,26416200.0
939.804,27502200.0
940.042,28382400.0
940.28,29130000.0
940.434,29539300.0
940.742,30257400.0
941.359,31436400.0
941.976,32406600.0
942.015,32464600.0
942.092,32581100.0
942.247,32806900.0
942.556,33226800.0
942.894,33656100.0
943.57,34410600.0
943.773,34605900.0
944.179,34958300.0
944.625,35278500.0
945.478,35633500.0
945.905,35672100.0
946.331,35600300.0
946.705,35422100.0
947.079,35059200.0
947.453,34385900.0
947.827,33260400.0
948.014,32411200.0
948.201,31348600.0
948.388,29884800.0
948.575,27979100.0
948.68,26669800.0
948.785,25200400.0
948.89,23606000.0
948.995,21900900.0
949.08,20438000.0
949.25,17457700.0
949.48,13397400.0
949.505,12966400.0
949.53,12500700.0
949.555,12132900.0
949.58,11952400.0
949.63,11920700.0
949.68,11936500.0
949.705,11944500.0
949.73,11952400.0
949.737,11954600.0
949.743,11956500.0
949.749,11958400.0
949.755,11960300.0
949.781,11968600.0
949.806,11976500.0
949.856,11992400.0
949.906,12056300.0
949.956,12642300.0
950.006,13582500.0
950.056,14503800.0
950.156,16404900.0
950.356,20196800.0
950.406,21154400.0
950.506,23042900.0
950.706,26562800.0
950.806,28170200.0
950.906,29637700.0
951.005,30921100.0
951.105,32119100.0
951.205,33164000.0
951.305,34101300.0
951.504,35641700.0
951.704,36964900.0
951.903,38032600.0
952.103,39002300.0
952.407,40213400.0
952.711,41232300.0
953.32,42992500.0
953.929,44644200.0
954.008,44857600.0
954.166,45266100.0
954.481,46052600.0
955.111,47581600.0
955.609,48759800.0
956.605,51064400.0
957.211,52488100.0
958.424,55232700.0
958.812,56195300.0
959.589,58094100.0
960.413,60085300.0
960.776,61265500.0
961.14,62267300.0
961.376,62838900.0
961.611,63415900.0
962.081,64614100.0
963.021,67468300.0
963.251,68036800.0
963.71,69232500.0
964.629,72100300.0
964.89,73059800.0
965.412,74377800.0
965.934,75790900.0
966.53,77598400.0
967.126,79338600.0
967.722,80355200.0
968.169,81087100.0
969.063,81934700.0
969.436,81693500.0
969.809,81398700.0
970.555,80475900.0
970.779,80099100.0
971.002,79589500.0
971.113,79354500.0
971.225,79151100.0
971.281,79059600.0
971.336,78965800.0
971.392,77550700.0
971.448,76375700.0
971.498,75540000.0
971.598,74329200.0
971.698,73478900.0
971.858,72528300.0
972.018,71843100.0
972.268,70425600.0
972.37,70033700.0
972.473,69709200.0
972.499,69632800.0
972.524,69567100.0
972.531,69549700.0
972.537,69535000.0
972.543,69520100.0
972.55,69503100.0
972.575,69442300.0
972.601,69390300.0
972.653,69299600.0
972.703,69298100.0
972.803,69324200.0
972.806,69324900.0
972.856,69340000.0
972.956,69375900.0
973.156,69450300.0
973.216,69470800.0
973.336,69557500.0
973.576,70212700.0
973.626,70350200.0
973.726,70625400.0
973.926,71183500.0
974.326,72552500.0
975.126,75828300.0
975.265,76465100.0
975.544,77625300.0
976.101,80018200.0
976.905,83379600.0
977.709,87630400.0
978.512,93355400.0
978.544,93617200.0
978.608,94157900.0
978.735,95169400.0
978.989,97183600.0
979.244,99546900.0
979.498,102403000.0
979.752,105983000.0
980.007,110445000.0
980.184,113214000.0
980.361,116405000.0
980.539,120287000.0
980.893,126833000.0
981.247,132656000.0
981.602,137485000.0
981.823,140476000.0
982.265,146032000.0
982.707,150804000.0
983.149,155172000.0
983.463,158489000.0
984.091,166286000.0
984.719,175150000.0
985.102,179490000.0
985.485,184090000.0
986.251,193859000.0
986.742,201512000.0
987.233,207124000.0
987.723,211246000.0
987.754,211438000.0
987.785,211627000.0
987.815,217461000.0
987.846,217657000.0
987.877,217858000.0
987.907,218024000.0
987.938,218234000.0
987.969,218451000.0
987.999,218631000.0
988.03,218865000.0
988.06,219106000.0
988.091,219309000.0
988.122,219563000.0
988.152,219817000.0
988.183,220018000.0
988.214,220277000.0
988.244,220490000.0
988.306,221049000.0
988.367,221593000.0
988.381,221742000.0
988.431,222112000.0
988.531,223040000.0
988.731,225255000.0
988.931,227830000.0
989.131,229829000.0
989.331,231896000.0
989.531,233950000.0
989.731,235365000.0
989.931,236850000.0
990.021,237593000.0
990.201,239078000.0
990.381,239258000.0
990.561,239545000.0
990.921,240901000.0
991.64,243478000.0
991.66,243712000.0
991.71,244259000.0
991.81,245416000.0
992.01,247811000.0
992.21,250311000.0
992.41,254266000.0
992.61,258672000.0
992.81,263524000.0
993.01,269374000.0
993.21,276583000.0
993.3,279342000.0
993.48,285080000.0
993.84,297428000.0
994.56,323234000.0
994.919,334730000.0
995.279,341944000.0
995.639,343560000.0
995.999,347305000.0
996.324,351686000.0
996.65,362945000.0
996.813,370253000.0
996.976,378564000.0
997.138,387446000.0
997.301,396371000.0
997.464,406081000.0
997.627,416832000.0
997.789,429046000.0
997.952,441528000.0
998.115,455352000.0
998.278,470764000.0
998.441,487693000.0
998.603,504030000.0
998.766,520450000.0
998.929,537842000.0
999.092,550045000.0
999.255,560144000.0
999.417,567466000.0
999.58,576414000.0
999.743,587040000.0
999.784,670934000.0
999.824,674548000.0
999.865,678292000.0
999.906,681767000.0
999.956,685131000.0
1000.0,688680000.0
1000.089,695821000.0
1000.266,713772000.0
1000.354,721196000.0
1000.443,723432000.0
1000.62,725425000.0
1000.975,725460000.0
1001.329,726633000.0
1001.621,722503000.0
1001.912,710169000.0
1002.495,688902000.0
1003.077,645158000.0
1003.66,600225000.0
1003.824,587687000.0
1004.152,562780000.0
1004.808,515233000.0
1005.181,490999000.0
1005.553,468543000.0
1005.925,448179000.0
1006.298,428646000.0
1006.67,410227000.0
1007.042,393655000.0
1007.282,384347000.0
1007.761,366205000.0
1008.241,349390000.0
1008.72,334637000.0
1009.011,326611000.0
1009.592,311862000.0
1010.166,298272000.0
1010.74,286395000.0
1011.314,275995000.0
1011.888,266621000.0
1012.469,258267000.0
1013.05,250741000.0
1013.631,244353000.0
1014.199,238802000.0
1015.335,229915000.0
1015.928,226299000.0
1017.115,220780000.0
1017.657,218981000.0
1018.742,216388000.0
1019.386,215311000.0
1020.674,213469000.0
1021.115,212701000.0
1021.997,210528000.0
1022.844,206655000.0
1023.268,202658000.0
1023.691,196020000.0
1023.903,191301000.0
1024.115,184728000.0
1024.327,176010000.0
1024.538,165607000.0
1024.574,163403000.0
1024.645,158857000.0
1024.788,149331000.0
1024.897,141445000.0
1025.006,132955000.0
1025.115,123830000.0
1025.224,113647000.0
1025.331,102934000.0
1025.438,91465600.0
1025.546,80022700.0
1025.573,78004700.0
1025.6,76670300.0
1025.627,76110900.0
1025.654,76031200.0
1025.681,76070500.0
1025.708,76116500.0
1025.715,76128300.0
1025.72,76136900.0
1025.722,76140300.0
1025.729,76152300.0
1025.736,76164100.0
1025.763,76210100.0
1025.79,76256600.0
1025.844,76650900.0
1025.871,77604200.0
1025.898,79319100.0
1025.925,81757500.0
1025.952,84546700.0
1026.005,90668200.0
1026.056,96630000.0
1026.106,102274000.0
1026.156,107786000.0
1026.206,113161000.0
1026.256,118423000.0
1026.306,123575000.0
1026.356,128510000.0
1026.406,133264000.0
1026.438,136148000.0
1026.501,141509000.0
1026.628,152103000.0
1026.749,161373000.0
1026.87,170144000.0
1026.92,173653000.0
1026.97,176991000.0
1027.02,180073000.0
1027.07,182806000.0
1027.12,185579000.0
1027.17,188235000.0
1027.22,190787000.0
1027.27,193240000.0
1027.32,195683000.0
1027.37,198100000.0
1027.421,200417000.0
1027.471,202671000.0
1027.521,204690000.0
1027.571,206331000.0
1027.621,207933000.0
1027.671,209509000.0
1027.721,211133000.0
1027.771,212718000.0
1027.821,214260000.0
1027.871,215740000.0
1027.921,217195000.0
1027.971,218605000.0
1028.021,219900000.0
1028.071,221048000.0
1028.121,222199000.0
1028.171,223383000.0
1028.221,224552000.0
1028.271,225720000.0
1028.321,226846000.0
1028.371,227939000.0
1028.422,229049000.0
1028.472,230136000.0
1028.522,231111000.0
1028.572,231971000.0
1028.6,232455000.0
1028.657,233416000.0
1028.77,235291000.0
1028.996,239022000.0
1029.45,245238000.0
1029.903,251137000.0
1030.329,256600000.0
1031.182,268015000.0
1032.058,280193000.0
1033.787,304762000.0
1035.516,329051000.0
1035.948,337637000.0
1036.381,348189000.0
1036.813,361946000.0
1037.246,378992000.0
1037.678,398180000.0
1038.111,418384000.0
1038.543,441010000.0
1038.975,466616000.0
1039.839,513102000.0
1040.703,561288000.0
1040.754,564597000.0
1040.804,567887000.0
1040.854,571220000.0
1040.904,574597000.0
1040.954,578020000.0
1041.004,581478000.0
1041.054,584859000.0
1041.104,588284000.0
1041.154,591754000.0
1041.204,595270000.0
1041.255,598834000.0
1041.305,602425000.0
1041.355,606063000.0
1041.405,609752000.0
1041.455,613492000.0
1041.505,617238000.0
1041.555,620585000.0
1041.605,623965000.0
1041.655,627380000.0
1041.705,630828000.0
1041.755,634313000.0
1041.805,637834000.0
1041.855,641392000.0
1041.905,644988000.0
1041.955,648622000.0
1042.005,652249000.0
1042.055,655514000.0
1042.105,658804000.0
1042.155,662116000.0
1042.205,665452000.0
1042.255,668813000.0
1042.306,672198000.0
1042.356,675609000.0
1042.406,679045000.0
1042.433,680933000.0
1042.488,684733000.0
1042.597,692316000.0
1042.816,707909000.0
1043.253,741379000.0
1043.691,778388000.0
1044.128,819052000.0
1044.162,822319000.0
1044.229,828916000.0
1044.364,842391000.0
1044.634,870748000.0
1045.173,934618000.0
1045.442,970627000.0
1045.712,1010620000.0
1045.892,1039380000.0
1046.252,1099110000.0
1046.973,1221020000.0
1047.297,1267910000.0
1047.621,1314320000.0
1048.269,1413910000.0
1048.54,1463390000.0
1048.81,1524550000.0
1049.081,1590990000.0
1049.351,1666330000.0
1049.892,1815030000.0
1050.0,1845080000.0
1050.216,1889560000.0
1050.432,1934870000.0
1050.647,1970330000.0
1050.863,2002600000.0
1051.295,2059620000.0
1052.158,2159740000.0
1053.021,2241690000.0
1053.453,2267740000.0
1053.885,2289010000.0
1054.316,2317200000.0
1054.748,2356080000.0
1055.0,2381980000.0
1055.504,2436950000.0
1056.008,2468090000.0
1056.512,2452740000.0
1057.016,2398060000.0
1057.52,2332430000.0
1058.023,2287570000.0
1058.527,2285170000.0
1058.779,2307110000.0
1059.031,2331740000.0
1059.283,2377620000.0
1059.535,2427250000.0
1059.768,2490760000.0
1060.0,2556750000.0
1060.232,2641060000.0
1060.465,2729870000.0
1060.697,2839100000.0
1060.93,2958810000.0
1061.162,3104520000.0
1061.395,3269260000.0
1061.627,3463980000.0
1061.859,3692600000.0
1062.092,3957940000.0
1062.324,4275810000.0
1062.557,4645270000.0
1062.789,5073190000.0
1063.021,5561250000.0
1063.254,6090760000.0
1063.486,6703570000.0
1063.719,7318300000.0
1063.951,8018510000.0
1064.184,8686910000.0
1064.648,10074500000.0
1065.0,11117800000.0
1065.352,12061000000.0
1065.703,13045400000.0
1066.055,14074400000.0
1066.406,15177100000.0
1067.109,17549300000.0
1067.461,18715400000.0
1067.812,19559800000.0
1068.164,20094200000.0
1068.516,20264200000.0
1068.867,19823000000.0
1069.219,19091200000.0
1069.57,18186100000.0
1069.922,17184600000.0
1070.0,16972300000.0
1070.156,16566500000.0
1070.469,15796800000.0
1070.781,15192200000.0
1071.094,14682700000.0
1071.406,14308400000.0
1071.719,14022700000.0
1072.344,13569200000.0
1072.969,13073500000.0
1073.594,12291200000.0
1074.219,11277200000.0
1075.0,9982400000.0
1075.391,9451430000.0
1075.781,9057730000.0
1076.172,8808010000.0
1076.562,8706290000.0
1076.758,8748470000.0
1076.953,8790500000.0
1077.148,8928060000.0
1077.344,9099540000.0
1077.539,9300590000.0
1077.734,9613250000.0
1077.93,9944460000.0
1078.125,10375000000.0
1078.32,10881800000.0
1078.516,11434800000.0
1078.711,12137900000.0
1078.906,12908000000.0
1079.102,13794600000.0
1079.297,14819800000.0
1079.492,15966700000.0
1079.688,17289800000.0
1079.844,18469000000.0
1080.0,19768800000.0
1080.156,21165100000.0
1080.312,22703400000.0
1080.469,24412700000.0
1080.625,26215900000.0
1080.781,28193000000.0
1080.938,30395300000.0
1081.094,32715500000.0
1081.25,35183200000.0
1081.394,37701800000.0
1081.538,40391200000.0
1081.826,46041600000.0
1081.97,49307500000.0
1082.114,52462900000.0
1082.258,55796200000.0
1082.401,59440100000.0
1082.689,66877800000.0
1082.883,72285900000.0
1083.077,77906800000.0
1083.465,89550700000.0
1084.24,113422000000.0
1085.016,138135000000.0
1085.403,149649000000.0
1085.791,160737000000.0
1086.538,181433000000.0
1087.285,200633000000.0
1088.032,218169000000.0
1088.779,234345000000.0
1089.526,249611000000.0
1090.0,258012000000.0
1090.948,274367000000.0
1091.895,287366000000.0
1092.843,298293000000.0
1093.79,307539000000.0
1094.738,315456000000.0
1095.0,317473000000.0
1095.525,320318000000.0
1096.575,325079000000.0
1097.625,326465000000.0
1098.674,325345000000.0
1099.337,322829000000.0
1100.0,318722000000.0
1101.326,309020000000.0
1102.651,296043000000.0
1103.977,280908000000.0
1105.0,268884000000.0
1106.023,253372000000.0
1107.046,238474000000.0
1108.069,220400000000.0
1109.092,203236000000.0
1109.546,193938000000.0
1110.0,185116000000.0
1110.908,168757000000.0
1111.362,159255000000.0
1111.816,149908000000.0
1112.271,141167000000.0
1112.725,132996000000.0
1113.633,117439000000.0
1114.087,110296000000.0
1114.541,103627000000.0
1115.0,97338300000.0
1115.918,84758700000.0
1116.836,74008400000.0
1117.754,63302800000.0
1118.672,54098400000.0
1119.59,45031700000.0
1120.0,41261800000.0
1120.41,37850900000.0
1120.82,34767300000.0
1121.23,31480100000.0
1121.641,28221000000.0
1122.051,25380100000.0
1122.461,22879900000.0
1122.871,20684200000.0
1123.281,18357600000.0
1123.691,16211800000.0
1124.102,14389100000.0
1124.512,12838800000.0
1124.922,11519300000.0
1125.0,11290700000.0
1125.078,10998800000.0
1125.156,10718700000.0
1125.312,10189900000.0
1125.469,9702260000.0
1125.625,9251930000.0
1125.781,8835670000.0
1125.938,8451700000.0
1126.094,8096480000.0
1126.25,7767340000.0
1126.562,7178230000.0
1126.719,6913650000.0
1126.875,6667210000.0
1127.188,6156710000.0
1127.5,5687610000.0
1127.812,5291260000.0
1128.125,4957400000.0
1128.438,4672060000.0
1128.75,4429940000.0
1129.062,4212940000.0
1129.688,3813850000.0
1129.844,3735560000.0
1130.0,3664290000.0
1130.312,3539510000.0
1130.625,3434510000.0
1130.938,3344980000.0
1131.154,3279280000.0
1131.587,3164520000.0
1132.02,3075760000.0
1132.308,3027420000.0
1132.883,2948130000.0
1133.459,2870420000.0
1134.034,2808840000.0
1134.61,2762320000.0
1135.761,2683650000.0
1136.154,2662530000.0
1136.941,2630770000.0
1138.515,2574540000.0
1140.0,2540730000.0
1141.485,2524450000.0
1142.971,2522610000.0
1144.456,2525000000.0
1145.0,2530320000.0
1146.088,2539430000.0
1148.264,2574310000.0
1150.0,2610340000.0
1153.473,2696960000.0
1156.945,2799570000.0
1160.418,2912530000.0
1163.891,3029430000.0
1165.769,3092770000.0
1169.526,3214950000.0
1173.283,3339610000.0
1177.04,3470600000.0
1180.796,3606920000.0
1181.538,3635350000.0
1183.021,3694610000.0
