Wavelength,Flux
900.0,452885000.0
903.442,492129000.0
904.998,510851000.0
906.554,530210000.0
908.11,550223000.0
909.667,570925000.0
910.703,585083000.0
911.74,599571000.0
911.84,600984000.0
912.0,603252000.0
912.31,607669000.0
912.779,614407000.0
913.717,628082000.0
913.871,630360000.0
914.026,632647000.0
914.181,662911000.0
914.335,681577000.0
914.49,705007000.0
914.644,730994000.0
914.798,756392000.0
914.953,769318000.0
914.992,766461000.0
915.03,758838000.0
915.069,744763000.0
915.107,724345000.0
915.146,695184000.0
915.185,666006000.0
915.223,651358000.0
915.262,651201000.0
915.312,651963000.0
915.329,652222000.0
915.379,652984000.0
915.429,654034000.0
915.479,674727000.0
915.529,711231000.0
915.579,728944000.0
915.629,712061000.0
915.679,675434000.0
915.729,658453000.0
915.779,659105000.0
915.824,659799000.0
915.892,660847000.0
915.926,661840000.0
915.96,676145000.0
915.994,709726000.0
916.028,751232000.0
916.078,800478000.0
916.128,821259000.0
916.178,805420000.0
916.228,756978000.0
916.278,696425000.0
916.328,667992000.0
916.378,668376000.0
916.428,669154000.0
916.479,669948000.0
916.529,671073000.0
916.579,703109000.0
916.629,781327000.0
916.679,868198000.0
916.729,936864000.0
916.779,978611000.0
916.829,985389000.0
916.879,954329000.0
916.929,889339000.0
916.979,800000000.0
917.029,715137000.0
917.079,679868000.0
917.129,680154000.0
917.179,680945000.0
917.181,680979000.0
917.231,681771000.0
917.281,682909000.0
917.331,718939000.0
917.381,815455000.0
917.431,932207000.0
917.448,972589000.0
917.498,1083660000.0
917.548,1175890000.0
917.598,1240500000.0
917.648,1271710000.0
917.698,1266780000.0
917.748,1224020000.0
917.798,1145150000.0
917.848,1035330000.0
917.898,911478000.0
917.948,789863000.0
917.998,709337000.0
918.048,694826000.0
918.088,695480000.0
918.129,696134000.0
918.21,697447000.0
918.251,706245000.0
918.291,759325000.0
918.332,855594000.0
918.373,972403000.0
918.413,1098380000.0
918.454,1227430000.0
918.535,1473610000.0
918.576,1581800000.0
918.616,1671700000.0
918.657,1745680000.0
918.697,1797700000.0
918.738,1823420000.0
918.778,1822080000.0
918.819,1792420000.0
918.86,1733760000.0
918.9,1652140000.0
918.941,1546520000.0
918.972,1454160000.0
919.004,1348460000.0
919.067,1136170000.0
919.099,1029760000.0
919.13,930201000.0
919.162,839444000.0
919.194,767343000.0
919.225,725390000.0
919.257,714636000.0
919.289,715082000.0
919.32,715604000.0
919.351,716115000.0
919.413,717136000.0
919.443,717696000.0
919.474,727661000.0
919.505,767890000.0
919.536,837911000.0
919.567,930215000.0
919.598,1034190000.0
919.628,1149360000.0
919.659,1272590000.0
919.69,1402100000.0
919.721,1537920000.0
919.783,1819320000.0
919.844,2095060000.0
919.906,2347340000.0
919.967,2566220000.0
920.029,2735060000.0
920.091,2851210000.0
920.122,2890040000.0
920.152,2913630000.0
920.183,2921080000.0
920.214,2912110000.0
920.245,2885930000.0
920.276,2844260000.0
920.307,2787190000.0
920.337,2713630000.0
920.368,2624020000.0
920.399,2518940000.0
920.43,2396460000.0
920.461,2265050000.0
920.491,2121220000.0
920.522,1972890000.0
920.56,1779720000.0
920.61,1535290000.0
920.66,1302970000.0
920.71,1095080000.0
920.76,918587000.0
920.81,789652000.0
920.86,741964000.0
920.91,742348000.0
920.96,743203000.0
920.963,743256000.0
921.013,744112000.0
921.063,745167000.0
921.113,789082000.0
921.163,917865000.0
921.213,1099390000.0
921.263,1318800000.0
921.313,1573370000.0
921.363,1860360000.0
921.413,2173380000.0
921.513,2821720000.0
921.613,3437990000.0
921.663,3721870000.0
921.713,3979340000.0
921.763,4211960000.0
921.813,4418240000.0
921.863,4597100000.0
921.913,4741980000.0
921.963,4852510000.0
922.013,4927900000.0
922.063,4967290000.0
922.113,4970350000.0
922.117,4968870000.0
922.167,4929730000.0
922.217,4850110000.0
922.267,4729040000.0
922.317,4565520000.0
922.367,4359980000.0
922.417,4124030000.0
922.467,3853260000.0
922.506,3617110000.0
922.556,3292210000.0
922.606,2945760000.0
922.656,2595280000.0
922.756,1903910000.0
922.806,1601930000.0
922.856,1338010000.0
922.895,1159860000.0
922.945,969933000.0
922.992,838237000.0
923.042,780724000.0
923.089,780458000.0
923.114,780905000.0
923.138,781335000.0
923.144,781441000.0
923.15,781550000.0
923.156,781657000.0
923.162,781764000.0
923.187,782212000.0
923.211,782643000.0
923.261,785350000.0
923.308,844228000.0
923.358,989588000.0
923.405,1174220000.0
923.455,1414140000.0
923.505,1698410000.0
923.555,2032310000.0
923.605,2404790000.0
923.655,2805060000.0
923.705,3220480000.0
923.794,3974460000.0
923.883,4710650000.0
923.972,5413180000.0
924.061,6071400000.0
924.15,6648880000.0
924.183,6842550000.0
924.249,7202300000.0
924.314,7525270000.0
924.38,7805740000.0
924.436,8013510000.0
924.492,8188950000.0
924.549,8330490000.0
924.605,8435590000.0
924.661,8505400000.0
924.688,8525700000.0
924.741,8541510000.0
924.795,8523770000.0
924.848,8470820000.0
924.894,8397270000.0
924.939,8296200000.0
924.984,8167360000.0
925.03,8011380000.0
925.075,7828420000.0
925.121,7619300000.0
925.189,7257140000.0
925.257,6839720000.0
925.325,6365260000.0
925.359,6101600000.0
925.393,5825610000.0
925.461,5262890000.0
925.52,4739440000.0
925.579,4219150000.0
925.696,3156470000.0
925.755,2650340000.0
925.814,2183110000.0
925.843,1966350000.0
925.873,1770620000.0
925.902,1591480000.0
925.931,1431040000.0
925.97,1241970000.0
926.02,1039300000.0
926.067,899078000.0
926.117,837399000.0
926.165,837231000.0
926.189,837690000.0
926.214,838165000.0
926.22,838280000.0
926.226,838395000.0
926.232,838509000.0
926.238,838623000.0
926.263,839100000.0
926.287,839558000.0
926.337,842106000.0
926.385,905591000.0
926.435,1060060000.0
926.482,1256260000.0
926.532,1512310000.0
926.582,1817520000.0
926.632,2179310000.0
926.682,2587850000.0
926.732,3033220000.0
926.782,3503890000.0
926.832,3989330000.0
926.873,4400890000.0
926.955,5228300000.0
927.119,6888740000.0
927.191,7573870000.0
927.263,8242100000.0
927.407,9504340000.0
927.478,10088300000.0
927.55,10644900000.0
927.694,11642900000.0
927.765,12084800000.0
927.837,12487700000.0
927.875,12685600000.0
927.951,13050500000.0
928.102,13652000000.0
928.177,13890300000.0
928.253,14088400000.0
928.404,14360600000.0
928.487,14438100000.0
928.57,14463000000.0
928.653,14433800000.0
928.736,14348400000.0
928.819,14202400000.0
928.902,13993200000.0
928.985,13721400000.0
929.097,13255500000.0
929.209,12673900000.0
929.32,11975000000.0
929.376,11582200000.0
929.432,11163200000.0
929.543,10248400000.0
929.655,9248340000.0
929.706,8757700000.0
929.808,7748010000.0
929.911,6681660000.0
930.013,5587800000.0
930.098,4684240000.0
930.183,3800210000.0
930.268,2966690000.0
930.311,2580690000.0
930.353,2229120000.0
930.396,1916660000.0
930.439,1645700000.0
930.489,1373440000.0
930.491,1362400000.0
930.541,1143540000.0
930.589,991394000.0
930.639,927106000.0
930.687,927404000.0
930.711,927906000.0
930.736,928427000.0
930.742,928553000.0
930.748,928677000.0
930.754,928803000.0
930.76,928929000.0
930.785,929450000.0
930.809,929954000.0
930.859,932237000.0
930.907,998489000.0
930.957,1162290000.0
931.005,1378300000.0
931.055,1654220000.0
931.105,1981930000.0
931.155,2372600000.0
931.205,2815690000.0
931.255,3300700000.0
931.305,3815540000.0
931.355,4349810000.0
931.398,4828900000.0
931.484,5802610000.0
931.657,7791910000.0
931.79,9289670000.0
931.923,10746500000.0
932.057,12141700000.0
932.19,13455900000.0
932.324,14671700000.0
932.457,15781600000.0
932.591,16799700000.0
932.724,17735600000.0
932.857,18588900000.0
933.033,19586100000.0
933.209,20476500000.0
933.384,21239500000.0
933.56,21881300000.0
933.736,22398200000.0
933.911,22799300000.0
934.087,23086100000.0
934.276,23264100000.0
934.465,23304400000.0
934.654,23203300000.0
934.843,22953400000.0
935.032,22547400000.0
935.221,21970300000.0
935.41,21239100000.0
935.514,20746200000.0
935.722,19617300000.0
935.825,18978100000.0
935.929,18260100000.0
936.033,17482000000.0
936.137,16642800000.0
936.241,15733900000.0
936.345,14745700000.0
936.448,13693700000.0
936.552,12568600000.0
936.653,11432500000.0
936.753,10254200000.0
936.853,9045110000.0
936.954,7804780000.0
937.148,5391330000.0
937.197,4803660000.0
937.245,4236170000.0
937.294,3691640000.0
937.342,3175590000.0
937.391,2701020000.0
937.439,2280450000.0
937.488,1923880000.0
937.536,1621470000.0
937.544,1580060000.0
937.594,1331790000.0
937.642,1159170000.0
937.692,1085020000.0
937.741,1085450000.0
937.766,1086050000.0
937.791,1086650000.0
937.797,1086790000.0
937.803,1086940000.0
937.809,1087080000.0
937.815,1087230000.0
937.84,1087830000.0
937.865,1088430000.0
937.915,1090640000.0
937.964,1167580000.0
938.014,1353320000.0
938.062,1598250000.0
938.112,1909890000.0
938.162,2280100000.0
938.212,2718930000.0
938.262,3219210000.0
938.312,3767860000.0
938.362,4349670000.0
938.412,4956590000.0
938.458,5541850000.0
938.55,6734880000.0
938.734,9181700000.0
938.853,10728800000.0
939.09,13734200000.0
939.209,15163700000.0
939.327,16515200000.0
939.446,17796400000.0
939.564,18994500000.0
939.801,21209100000.0
940.038,23198000000.0
940.275,24999600000.0
940.434,26083100000.0
940.751,27999700000.0
941.069,29696100000.0
941.386,31115300000.0
941.703,32334300000.0
942.015,33361100000.0
942.327,34237400000.0
942.61,34911800000.0
942.894,35475100000.0
943.461,36394100000.0
943.773,36666500000.0
944.085,36811100000.0
944.625,36747600000.0
944.895,36555400000.0
945.165,36243400000.0
945.435,35804300000.0
945.478,35722000000.0
945.564,35546800000.0
945.736,35153200000.0
946.08,34173700000.0
946.423,32904700000.0
946.595,32144700000.0
946.767,31294700000.0
947.079,29482700000.0
947.235,28424000000.0
947.391,27245800000.0
947.547,25951500000.0
947.703,24571200000.0
947.859,23058300000.0
948.015,21413600000.0
948.171,19622100000.0
948.327,17652500000.0
948.482,15522000000.0
948.638,13293600000.0
948.68,12677000000.0
948.763,11444000000.0
948.929,8912920000.0
949.08,6647480000.0
949.155,5555840000.0
949.231,4526480000.0
949.268,4042470000.0
949.306,3589320000.0
949.344,3171650000.0
949.381,2800780000.0
949.419,2467660000.0
949.457,2174590000.0
949.48,2011590000.0
949.53,1710360000.0
949.58,1495020000.0
949.63,1407460000.0
949.68,1408270000.0
949.705,1409030000.0
949.73,1409790000.0
949.737,1410000000.0
949.743,1410180000.0
949.749,1410360000.0
949.755,1410550000.0
949.781,1411330000.0
949.806,1412090000.0
949.856,1414340000.0
949.906,1505500000.0
949.956,1725920000.0
950.006,2034000000.0
950.056,2409300000.0
950.106,2854910000.0
950.156,3372790000.0
950.206,3970290000.0
950.256,4629020000.0
950.306,5322070000.0
950.356,6060630000.0
950.406,6822730000.0
950.456,7596490000.0
950.556,9190390000.0
950.656,10818300000.0
950.806,13207800000.0
951.106,17849900000.0
951.256,20022400000.0
951.406,22052000000.0
951.556,23940900000.0
951.707,25723200000.0
951.857,27386600000.0
952.007,28975900000.0
952.307,31880800000.0
952.407,32763500000.0
952.607,34407800000.0
953.008,37323900000.0
953.208,38623500000.0
953.408,39832600000.0
953.808,42018400000.0
954.008,43009100000.0
954.407,44816700000.0
955.206,47979300000.0
955.609,49428100000.0
956.415,52265400000.0
957.211,54855600000.0
958.802,59915600000.0
958.812,59946100000.0
958.862,60105300000.0
958.962,60424300000.0
959.162,61064000000.0
959.362,61704900000.0
959.562,62347100000.0
959.762,62991300000.0
959.962,63638200000.0
960.162,64288700000.0
960.362,64943400000.0
960.413,65111000000.0
960.515,65448100000.0
960.719,66126300000.0
960.747,66222000000.0
960.776,66998900000.0
960.805,67099100000.0
960.833,67199600000.0
960.89,67400900000.0
961.005,67800300000.0
961.14,68274400000.0
961.376,69107300000.0
961.611,69942100000.0
962.081,71625400000.0
963.021,75018800000.0
963.251,75840400000.0
963.71,77458800000.0
964.629,80560100000.0
964.89,81362300000.0
965.412,82823400000.0
965.934,84058100000.0
966.456,84867900000.0
966.53,84954500000.0
966.678,85121400000.0
966.975,85245000000.0
967.567,85010800000.0
967.864,84533600000.0
968.16,83916400000.0
968.169,83890300000.0
968.219,83745300000.0
968.319,83464800000.0
968.519,82940000000.0
968.719,82411400000.0
968.919,81494400000.0
969.119,80702100000.0
969.319,80011400000.0
969.519,79245100000.0
969.719,78546000000.0
969.809,78261900000.0
969.989,77744200000.0
970.349,76430500000.0
971.069,74045600000.0
971.163,73760100000.0
971.258,73494100000.0
971.306,73368600000.0
971.353,72855700000.0
971.401,71503800000.0
971.448,70379500000.0
971.498,69366900000.0
971.598,67715300000.0
971.698,66390900000.0
971.858,64688000000.0
972.018,63141300000.0
972.143,61255500000.0
972.268,59672500000.0
972.37,58529500000.0
972.473,57477200000.0
972.499,57226300000.0
972.524,56990500000.0
972.531,56925200000.0
972.537,56869800000.0
972.543,56814200000.0
972.55,56750400000.0
972.575,56524500000.0
972.601,56294400000.0
972.653,55847700000.0
972.703,55660700000.0
972.803,55368800000.0
972.806,55360100000.0
972.856,55218100000.0
972.956,54940300000.0
973.156,54413200000.0
973.216,54260500000.0
973.336,54061400000.0
973.456,54509100000.0
973.576,54966300000.0
973.626,55159400000.0
973.726,55551200000.0
973.926,56360100000.0
974.126,57389300000.0
974.326,58572600000.0
974.726,61111000000.0
975.265,64495400000.0
975.804,67521700000.0
976.344,70175000000.0
976.905,72741000000.0
977.466,75543800000.0
978.028,79072600000.0
978.544,82092600000.0
979.06,85247300000.0
979.576,89177600000.0
979.88,92322000000.0
980.184,95821400000.0
980.488,99940800000.0
980.792,104374000000.0
981.096,107848000000.0
981.399,111703000000.0
981.611,113340000000.0
981.823,115087000000.0
982.247,118483000000.0
983.094,124537000000.0
983.463,126949000000.0
984.202,132161000000.0
985.102,139395000000.0
986.002,145317000000.0
986.742,150308000000.0
988.221,159606000000.0
988.381,159505000000.0
988.541,159409000000.0
988.861,159457000000.0
989.18,161013000000.0
989.5,162559000000.0
989.76,162899000000.0
990.021,163233000000.0
990.281,163029000000.0
990.542,161887000000.0
991.063,160283000000.0
991.361,159974000000.0
991.66,160167000000.0
991.71,160387000000.0
991.81,160828000000.0
992.01,161712000000.0
992.21,162585000000.0
992.41,164128000000.0
992.61,165836000000.0
992.81,167553000000.0
993.01,169587000000.0
993.21,172215000000.0
993.3,173440000000.0
993.48,175977000000.0
993.84,181472000000.0
994.56,191966000000.0
995.279,196129000000.0
995.999,196792000000.0
996.324,197593000000.0
996.65,200809000000.0
996.976,205028000000.0
997.301,210833000000.0
997.627,218283000000.0
997.952,226434000000.0
998.278,235404000000.0
998.603,244178000000.0
998.929,250724000000.0
999.255,256261000000.0
999.417,257251000000.0
999.58,258424000000.0
999.743,259791000000.0
999.784,287426000000.0
999.824,287783000000.0
999.865,288139000000.0
999.906,288302000000.0
999.956,288126000000.0
1000.0,287968000000.0
1000.089,287782000000.0
1000.266,287372000000.0
1000.62,285600000000.0
1000.975,280962000000.0
1001.329,275776000000.0
1001.912,267423000000.0
1003.077,251568000000.0
1003.824,241361000000.0
1005.317,222805000000.0
1005.553,220148000000.0
1006.024,215137000000.0
1006.967,205499000000.0
1007.282,202716000000.0
1007.913,197135000000.0
1009.011,188444000000.0
1010.109,180868000000.0
1010.74,176927000000.0
1012.002,169931000000.0
1012.469,167598000000.0
1013.404,163297000000.0
1014.199,159980000000.0
1015.79,154163000000.0
1015.928,153704000000.0
1016.204,152741000000.0
1016.757,150849000000.0
1017.657,147712000000.0
1019.386,140737000000.0
1020.25,136057000000.0
1021.115,129708000000.0
1021.547,125498000000.0
1021.979,120342000000.0
1022.412,113872000000.0
1022.844,105894000000.0
1023.06,101291000000.0
1023.276,95868300000.0
1023.492,90451600000.0
1023.708,83610100000.0
1023.817,80236200000.0
1023.925,76863100000.0
1024.033,73043500000.0
1024.141,68426400000.0
1024.249,64000600000.0
1024.465,55325100000.0
1024.574,50474600000.0
1024.683,45491600000.0
1024.901,35640000000.0
1025.006,30739600000.0
1025.111,25889900000.0
1025.215,20722200000.0
1025.32,15641100000.0
1025.349,14308100000.0
1025.379,13038500000.0
1025.408,11850700000.0
1025.438,10744100000.0
1025.468,9757940000.0
1025.497,8841550000.0
1025.546,7542430000.0
1025.596,6620540000.0
1025.646,6307520000.0
1025.654,6301780000.0
1025.681,6302420000.0
1025.708,6305500000.0
1025.715,6306290000.0
1025.72,6306860000.0
1025.722,6307100000.0
1025.729,6307890000.0
1025.736,6308680000.0
1025.763,6311760000.0
1025.79,6314890000.0
1025.817,6331420000.0
1025.844,6450310000.0
1025.871,6753470000.0
1025.898,7236080000.0
1025.925,7867900000.0
1025.952,8583530000.0
1025.979,9389470000.0
1026.005,10279400000.0
1026.056,12164600000.0
1026.106,14302600000.0
1026.156,16674800000.0
1026.206,19183700000.0
1026.256,21731200000.0
1026.306,24316500000.0
1026.356,26884100000.0
1026.406,29367400000.0
1026.438,30874600000.0
1026.501,33945700000.0
1026.628,40062600000.0
1026.87,51288400000.0
1027.112,62161300000.0
1027.355,72448600000.0
1027.597,82257400000.0
1027.718,86351300000.0
1027.839,90488600000.0
1027.96,94704400000.0
1028.081,98444700000.0
1028.203,101997000000.0
1028.323,105595000000.0
1028.566,112530000000.0
1028.6,113350000000.0
1028.668,114984000000.0
1028.805,118229000000.0
1029.078,124384000000.0
1029.352,129667000000.0
1029.625,134625000000.0
1030.172,143354000000.0
1030.329,145601000000.0
1030.642,150042000000.0
1031.269,158676000000.0
1032.058,168392000000.0
1032.847,176500000000.0
1033.635,183962000000.0
1033.787,185391000000.0
1034.091,188084000000.0
1034.698,192252000000.0
1035.306,196730000000.0
1035.516,198566000000.0
1035.937,202778000000.0
1036.358,207671000000.0
1036.779,213603000000.0
1037.246,221328000000.0
1037.713,229474000000.0
1038.648,246323000000.0
1038.975,252923000000.0
1039.629,264418000000.0
1040.284,274678000000.0
1040.704,281899000000.0
1041.545,298020000000.0
1042.386,313074000000.0
1042.433,313901000000.0
1042.528,315556000000.0
1042.717,318864000000.0
1043.096,325693000000.0
1043.854,340673000000.0
1044.162,347165000000.0
1044.778,360871000000.0
1045.335,374693000000.0
1045.892,390557000000.0
1047.006,423483000000.0
1047.621,438209000000.0
1048.236,453394000000.0
1048.81,471207000000.0
1049.384,492786000000.0
1049.958,514314000000.0
1050.0,515918000000.0
1050.084,518315000000.0
1050.253,523135000000.0
1050.591,532068000000.0
1051.267,545329000000.0
1051.943,556689000000.0
1053.294,574957000000.0
1054.646,588886000000.0
1055.0,594111000000.0
1055.708,603966000000.0
1056.416,606778000000.0
1057.124,600519000000.0
1058.54,593331000000.0
1059.248,605371000000.0
1059.956,627345000000.0
1060.0,628912000000.0
1060.088,632710000000.0
1060.264,640471000000.0
1060.615,657674000000.0
1060.967,678253000000.0
1061.318,704051000000.0
1061.67,735291000000.0
1062.021,773299000000.0
1062.373,821489000000.0
1062.725,879609000000.0
1063.076,949429000000.0
1063.428,1030510000000.0
1063.779,1120310000000.0
1064.131,1218140000000.0
1064.834,1413750000000.0
1065.0,1462710000000.0
1065.332,1547970000000.0
1065.664,1637290000000.0
1066.328,1828460000000.0
1066.66,1934570000000.0
1066.992,2048600000000.0
1067.324,2156480000000.0
1067.656,2252300000000.0
1067.822,2290570000000.0
1067.988,2329690000000.0
1068.154,2341090000000.0
1068.32,2350160000000.0
1068.486,2359030000000.0
1068.652,2339550000000.0
1068.984,2296170000000.0
1069.316,2210950000000.0
1069.648,2120760000000.0
1070.0,2023830000000.0
1070.352,1937470000000.0
1070.703,1866520000000.0
1071.055,1809130000000.0
1071.406,1769550000000.0
1071.758,1740060000000.0
1072.109,1715500000000.0
1072.812,1667200000000.0
1073.516,1595100000000.0
1074.219,1491540000000.0
1075.0,1377100000000.0
1075.391,1331120000000.0
1075.781,1297250000000.0
1076.172,1276170000000.0
1076.562,1268390000000.0
1076.953,1277290000000.0
1077.344,1306350000000.0
1077.734,1353630000000.0
1078.125,1422310000000.0
1078.32,1467910000000.0
1078.516,1517710000000.0
1078.711,1581340000000.0
1078.906,1651790000000.0
1079.102,1733380000000.0
1079.297,1827990000000.0
1079.492,1933940000000.0
1079.688,2056490000000.0
1079.844,2166560000000.0
1080.0,2289020000000.0
1080.156,2423240000000.0
1080.312,2574130000000.0
1080.469,2743050000000.0
1080.625,2922450000000.0
