Wavelength,Flux
900.0,255522000.0
903.442,278270000.0
904.998,289139000.0
906.554,300389000.0
908.11,312031000.0
909.667,324086000.0
910.703,332337000.0
911.74,340785000.0
911.84,341610000.0
912.0,342933000.0
912.31,345510000.0
912.779,349442000.0
913.717,357427000.0
914.335,363344000.0
915.329,371533000.0
915.824,375964000.0
915.892,376577000.0
915.96,378085000.0
916.028,384924000.0
916.096,390289000.0
916.164,391320000.0
916.232,387188000.0
916.3,380954000.0
916.365,380858000.0
916.429,381445000.0
916.558,383427000.0
916.622,392675000.0
916.686,403874000.0
916.751,410918000.0
916.815,414191000.0
916.879,412617000.0
916.944,405942000.0
917.008,394279000.0
917.072,387474000.0
917.127,387853000.0
917.181,388356000.0
917.29,389495000.0
917.329,393139000.0
917.369,402295000.0
917.408,413127000.0
917.448,423186000.0
917.498,433913000.0
917.548,442054000.0
917.598,447474000.0
917.648,450481000.0
917.698,451237000.0
917.748,449458000.0
917.798,444426000.0
917.848,435169000.0
917.898,422202000.0
917.998,397535000.0
918.063,396609000.0
918.129,397229000.0
918.26,400094000.0
918.391,442271000.0
918.522,480528000.0
918.588,492531000.0
918.653,501182000.0
918.719,506434000.0
918.785,508447000.0
918.85,506894000.0
918.916,500756000.0
918.96,493386000.0
919.004,483451000.0
919.048,469757000.0
919.092,453714000.0
919.181,418345000.0
919.225,408912000.0
919.269,408141000.0
919.351,408934000.0
919.433,409730000.0
919.474,411076000.0
919.515,419894000.0
919.556,436686000.0
919.597,456532000.0
919.637,476137000.0
919.719,511590000.0
919.76,526297000.0
919.801,538673000.0
919.883,558506000.0
919.965,573373000.0
920.047,583988000.0
920.128,590918000.0
920.21,594224000.0
920.292,593550000.0
920.374,587803000.0
920.415,582535000.0
920.456,575375000.0
920.497,566004000.0
920.538,554420000.0
920.56,547106000.0
920.61,527507000.0
920.66,503676000.0
920.71,477300000.0
920.76,450548000.0
920.81,430144000.0
920.86,423867000.0
920.91,424317000.0
920.96,424819000.0
920.963,424851000.0
921.013,425352000.0
921.063,425889000.0
921.113,432305000.0
921.163,453901000.0
921.213,483045000.0
921.313,542664000.0
921.413,592339000.0
921.513,630863000.0
921.563,646401000.0
921.613,660469000.0
921.713,683589000.0
921.813,700702000.0
921.913,713636000.0
922.013,722909000.0
922.113,728469000.0
922.117,728619000.0
922.167,729801000.0
922.267,728606000.0
922.367,721523000.0
922.467,706736000.0
922.506,698360000.0
922.584,675556000.0
922.623,661151000.0
922.662,645320000.0
922.701,627256000.0
922.74,606464000.0
922.818,559821000.0
922.857,534338000.0
922.895,508687000.0
922.933,484095000.0
922.972,463199000.0
922.992,454767000.0
923.042,446355000.0
923.089,446689000.0
923.114,446953000.0
923.138,447205000.0
923.144,447268000.0
923.15,447331000.0
923.156,447394000.0
923.162,447457000.0
923.187,447720000.0
923.211,447973000.0
923.261,448792000.0
923.308,458179000.0
923.358,483837000.0
923.405,515689000.0
923.455,552049000.0
923.555,622999000.0
923.655,685367000.0
923.755,739204000.0
923.794,757373000.0
923.872,789307000.0
923.95,816879000.0
924.028,840159000.0
924.107,860226000.0
924.183,877296000.0
924.336,904969000.0
924.436,919456000.0
924.636,941168000.0
924.688,945281000.0
924.792,951596000.0
924.939,955042000.0
925.086,950464000.0
925.189,941066000.0
925.292,924874000.0
925.395,900033000.0
925.446,883595000.0
925.498,864395000.0
925.579,826951000.0
925.62,805119000.0
925.66,781337000.0
925.742,726834000.0
925.823,666735000.0
925.905,602352000.0
925.97,549863000.0
926.018,515059000.0
926.067,489068000.0
926.116,479759000.0
926.164,480063000.0
926.189,480342000.0
926.214,480622000.0
926.22,480689000.0
926.226,480757000.0
926.232,480824000.0
926.238,480892000.0
926.263,481173000.0
926.287,481442000.0
926.337,482281000.0
926.385,492727000.0
926.435,521233000.0
926.482,556766000.0
926.532,599122000.0
926.582,642125000.0
926.682,727217000.0
926.777,805822000.0
926.873,876427000.0
926.969,938691000.0
927.064,992710000.0
927.16,1040520000.0
927.255,1082650000.0
927.263,1085850000.0
927.313,1105180000.0
927.413,1139770000.0
927.513,1170380000.0
927.613,1196770000.0
927.713,1220160000.0
927.875,1252910000.0
928.037,1280440000.0
928.199,1304060000.0
928.487,1336550000.0
928.775,1356400000.0
928.919,1360340000.0
929.063,1358980000.0
929.097,1357720000.0
929.166,1353940000.0
929.303,1340520000.0
929.441,1317370000.0
929.578,1281830000.0
929.642,1260020000.0
929.706,1234420000.0
929.77,1203990000.0
929.834,1169550000.0
929.898,1130120000.0
929.962,1085580000.0
930.026,1038280000.0
930.09,986421000.0
930.098,979438000.0
930.148,935706000.0
930.248,842452000.0
930.348,745606000.0
930.491,610731000.0
930.54,571349000.0
930.589,542588000.0
930.638,532805000.0
930.687,533216000.0
930.711,533513000.0
930.736,533821000.0
930.742,533895000.0
930.748,533968000.0
930.754,534043000.0
930.76,534117000.0
930.785,534425000.0
930.809,534722000.0
930.859,535567000.0
930.907,546589000.0
930.957,577712000.0
931.005,618161000.0
931.055,666279000.0
931.105,716044000.0
931.205,819547000.0
931.398,1020660000.0
931.495,1113770000.0
931.591,1202810000.0
931.688,1283730000.0
931.784,1355760000.0
931.79,1359880000.0
931.84,1393920000.0
931.94,1456290000.0
932.04,1511010000.0
932.14,1559530000.0
932.24,1603090000.0
932.44,1677030000.0
932.64,1736890000.0
932.84,1788550000.0
933.033,1831730000.0
933.419,1903620000.0
933.805,1962670000.0
934.192,2012060000.0
934.276,2021510000.0
934.445,2038790000.0
934.782,2066250000.0
935.119,2081800000.0
935.456,2079070000.0
935.514,2075980000.0
935.63,2066880000.0
935.862,2035960000.0
935.977,2011860000.0
936.093,1980990000.0
936.209,1942260000.0
936.325,1893980000.0
936.441,1836000000.0
936.557,1763930000.0
936.655,1692310000.0
936.753,1610090000.0
936.851,1516450000.0
936.949,1412650000.0
937.048,1299730000.0
937.146,1183750000.0
937.148,1181100000.0
937.198,1120280000.0
937.298,997655000.0
937.398,877939000.0
937.498,764612000.0
937.544,716100000.0
937.594,669881000.0
937.642,637502000.0
937.692,626181000.0
937.741,626690000.0
937.766,627046000.0
937.791,627402000.0
937.797,627486000.0
937.803,627572000.0
937.809,627658000.0
937.815,627743000.0
937.84,628100000.0
937.865,628456000.0
937.915,629405000.0
937.964,642205000.0
938.014,678041000.0
938.062,724575000.0
938.112,779918000.0
938.162,838057000.0
938.262,960830000.0
938.362,1091360000.0
938.458,1218430000.0
938.65,1468850000.0
938.752,1594100000.0
938.853,1711410000.0
938.954,1818470000.0
939.056,1917070000.0
939.157,2006000000.0
939.259,2086780000.0
939.462,2228790000.0
939.563,2290440000.0
939.665,2347280000.0
939.867,2447320000.0
940.07,2532140000.0
940.273,2604310000.0
940.434,2654650000.0
940.756,2742640000.0
941.077,2820400000.0
941.399,2888160000.0
942.015,3002250000.0
942.631,3103190000.0
942.894,3142770000.0
943.42,3215890000.0
943.773,3259650000.0
944.479,3337570000.0
944.625,3351610000.0
944.916,3377050000.0
945.478,3412860000.0
946.04,3420980000.0
946.601,3382920000.0
946.84,3348110000.0
947.079,3298860000.0
947.318,3229640000.0
947.557,3133360000.0
947.795,3001470000.0
948.034,2830410000.0
948.273,2615740000.0
948.512,2349820000.0
948.596,2242650000.0
948.68,2128850000.0
948.73,2057010000.0
948.83,1909770000.0
948.93,1754010000.0
949.03,1596990000.0
949.08,1518140000.0
949.18,1360750000.0
949.28,1206190000.0
949.381,1062280000.0
949.43,993739000.0
949.48,929496000.0
949.53,872291000.0
949.58,831112000.0
949.63,818000000.0
949.68,818709000.0
949.705,819160000.0
949.73,819612000.0
949.737,819739000.0
949.743,819846000.0
949.749,819956000.0
949.755,820065000.0
949.781,820535000.0
949.806,820989000.0
949.856,822095000.0
949.906,837108000.0
949.956,880502000.0
950.006,940275000.0
950.056,1007850000.0
950.106,1080150000.0
950.206,1231230000.0
950.306,1394400000.0
950.406,1561760000.0
950.456,1646430000.0
950.556,1815870000.0
950.756,2148400000.0
950.806,2228590000.0
950.906,2381020000.0
951.106,2660030000.0
951.206,2787080000.0
951.307,2906970000.0
951.507,3123670000.0
951.707,3316590000.0
951.907,3484680000.0
952.107,3631190000.0
952.307,3759020000.0
952.407,3817500000.0
952.606,3923400000.0
953.004,4109780000.0
953.402,4266470000.0
953.8,4401630000.0
954.008,4465050000.0
954.424,4579510000.0
955.257,4777140000.0
955.609,4852030000.0
956.313,4994410000.0
957.211,5161820000.0
958.812,5445930000.0
960.413,5714070000.0
960.776,5777280000.0
961.14,5837210000.0
961.376,5876340000.0
961.611,5915490000.0
962.081,5994410000.0
963.021,6149930000.0
963.251,6188400000.0
963.71,6266060000.0
964.629,6420060000.0
964.89,6464070000.0
965.412,6552820000.0
966.456,6729860000.0
966.53,6742410000.0
966.678,6767550000.0
966.975,6817780000.0
967.567,6918330000.0
968.169,7017140000.0
969.372,7203160000.0
969.809,7261310000.0
970.683,7360880000.0
971.065,7393680000.0
971.448,7357820000.0
971.653,7252360000.0
971.858,7157870000.0
971.908,7135970000.0
972.008,7089010000.0
972.108,6995240000.0
972.208,6910190000.0
972.268,6861750000.0
972.37,6784210000.0
972.473,6711280000.0
972.499,6693680000.0
972.524,6677290000.0
972.531,6672750000.0
972.537,6668880000.0
972.543,6665010000.0
972.55,6660560000.0
972.575,6644770000.0
972.601,6628680000.0
972.653,6597600000.0
972.703,6586320000.0
972.803,6569740000.0
972.806,6569240000.0
972.856,6561150000.0
972.956,6545380000.0
973.156,6515490000.0
973.216,6506890000.0
973.336,6497920000.0
973.456,6540110000.0
973.576,6583030000.0
973.626,6601140000.0
973.726,6637840000.0
973.926,6713130000.0
974.326,6910180000.0
974.726,7133330000.0
975.265,7426710000.0
975.804,7684770000.0
976.344,7907030000.0
976.905,8114780000.0
978.028,8549410000.0
978.544,8729390000.0
979.576,9075190000.0
980.184,9284800000.0
981.399,9651550000.0
981.823,9758600000.0
982.67,9972590000.0
983.463,10168700000.0
985.048,10573900000.0
985.102,10587600000.0
985.209,10614900000.0
985.423,10670000000.0
985.851,10779800000.0
986.708,11005200000.0
986.742,11014300000.0
986.81,11032700000.0
986.947,11069400000.0
987.221,11143200000.0
987.767,11284400000.0
988.381,11450700000.0
989.608,11782500000.0
990.021,11895400000.0
990.847,12112300000.0
991.66,12334300000.0
993.287,12830000000.0
993.3,12834200000.0
993.35,12850400000.0
993.45,12882300000.0
993.65,12946300000.0
993.85,13010600000.0
994.05,13075500000.0
994.25,13141100000.0
994.45,13205500000.0
994.65,13268500000.0
994.85,13332000000.0
995.05,13395300000.0
995.25,13456100000.0
995.45,13517200000.0
995.65,13578800000.0
995.85,13641200000.0
996.05,13704400000.0
996.25,13768000000.0
996.45,13832800000.0
996.65,13900700000.0
997.05,14034900000.0
997.849,14319000000.0
999.448,14893500000.0
1000.0,15114300000.0
1001.103,15491200000.0
1001.912,15764600000.0
1003.53,16323700000.0
1003.824,16427000000.0
1004.412,16627400000.0
1005.553,17020700000.0
1007.282,17619000000.0
1009.011,18172500000.0
1010.74,18659300000.0
1012.469,19030500000.0
1014.198,19223900000.0
1014.249,19226000000.0
1014.349,19229900000.0
1014.549,19235000000.0
1014.749,19235300000.0
1014.949,19233900000.0
1015.149,19226200000.0
1015.349,19214900000.0
1015.549,19201000000.0
1015.749,19181600000.0
1015.928,19162000000.0
1016.286,19105500000.0
1017.002,18952300000.0
1017.657,18761100000.0
1018.968,18238500000.0
1019.386,18026600000.0
1020.223,17530500000.0
1021.115,16870200000.0
1021.561,16460400000.0
1022.007,15984700000.0
1022.426,15431600000.0
1022.844,14775600000.0
1023.262,13959200000.0
1023.681,12897100000.0
1023.89,12272700000.0
1024.099,11524600000.0
1024.309,10681700000.0
1024.518,9811140000.0
1024.574,9533390000.0
1024.686,8973190000.0
1024.911,7814040000.0
1025.006,7291660000.0
1025.196,6200000000.0
1025.291,5598790000.0
1025.386,4992170000.0
1025.438,4669390000.0
1025.49,4348350000.0
1025.541,4068080000.0
1025.546,4044040000.0
1025.596,3863670000.0
1025.646,3812440000.0
1025.654,3812520000.0
1025.681,3814210000.0
1025.708,3816120000.0
1025.715,3816610000.0
1025.72,3816970000.0
1025.722,3817110000.0
1025.729,3817610000.0
1025.736,3818100000.0
1025.763,3820010000.0
1025.79,3821930000.0
1025.844,3845090000.0
1025.871,3902640000.0
1025.898,4001440000.0
1025.925,4128630000.0
1025.952,4280340000.0
1026.005,4609940000.0
1026.056,4941240000.0
1026.106,5274540000.0
1026.156,5605700000.0
1026.206,5946400000.0
1026.256,6278600000.0
1026.306,6604700000.0
1026.356,6921310000.0
1026.406,7227320000.0
1026.438,7412680000.0
1026.501,7772260000.0
1026.628,8506030000.0
1026.749,9164890000.0
1026.87,9809530000.0
1026.92,10070000000.0
1026.97,10333300000.0
1027.02,10581600000.0
1027.07,10806200000.0
1027.12,11029300000.0
1027.17,11248400000.0
1027.22,11465300000.0
1027.27,11684700000.0
1027.32,11907000000.0
1027.37,12130400000.0
1027.421,12356900000.0
1027.471,12584800000.0
1027.521,12793800000.0
1027.571,12967400000.0
1027.621,13142300000.0
1027.671,13316700000.0
1027.721,13489400000.0
1027.771,13662200000.0
1027.821,13836400000.0
1027.871,14010800000.0
1027.921,14184700000.0
1027.971,14358700000.0
1028.021,14521200000.0
1028.071,14664700000.0
1028.121,14808700000.0
1028.171,14951200000.0
1028.221,15091400000.0
1028.271,15231600000.0
1028.321,15372200000.0
1028.371,15513500000.0
1028.422,15655500000.0
1028.472,15798900000.0
1028.522,15930800000.0
1028.572,16045500000.0
1028.6,16110000000.0
1028.657,16238000000.0
1028.77,16492800000.0
1028.996,17010200000.0
1029.45,17890300000.0
1029.903,18689400000.0
1030.329,19379300000.0
1031.182,20761200000.0
1032.058,22152700000.0
1032.922,23364300000.0
1033.787,24513200000.0
1034.651,25459700000.0
1035.516,26411100000.0
1036.38,27727100000.0
1037.245,29422800000.0
1037.296,29528200000.0
1037.346,29633000000.0
1037.396,29739500000.0
1037.446,29848100000.0
1037.496,29958000000.0
1037.546,30048300000.0
1037.596,30137300000.0
1037.646,30226800000.0
1037.696,30317600000.0
1037.746,30408800000.0
1037.797,30500400000.0
1037.847,30592600000.0
1037.897,30685700000.0
1037.947,30780000000.0
1037.997,30874600000.0
1038.047,30960400000.0
1038.097,31046600000.0
1038.147,31133200000.0
1038.197,31220300000.0
1038.247,31308900000.0
1038.297,31397800000.0
1038.347,31487100000.0
1038.397,31577700000.0
1038.447,31668600000.0
1038.497,31760000000.0
1038.547,31845300000.0
1038.597,31930500000.0
1038.647,32015900000.0
1038.697,32102100000.0
1038.747,32188400000.0
1038.797,32274900000.0
1038.848,32362600000.0
1038.898,32450400000.0
1038.948,32538500000.0
1038.975,32587400000.0
1039.03,32675900000.0
1039.139,32839500000.0
1039.358,33169800000.0
1039.795,33772300000.0
1040.67,34893000000.0
1040.704,34937500000.0
1040.771,35027600000.0
1040.906,35207500000.0
1041.176,35565000000.0
1041.715,36264000000.0
1042.433,37131700000.0
1043.87,38856900000.0
1044.162,39222200000.0
1044.747,39957900000.0
1045.892,41429900000.0
1047.621,43580300000.0
1048.81,45060100000.0
1050.0,46686600000.0
1052.38,49499300000.0
1054.76,52223100000.0
1055.0,52520000000.0
1055.48,53122400000.0
1056.441,54265200000.0
1058.363,56225900000.0
1059.182,57283000000.0
1060.0,58542500000.0
1061.637,61658300000.0
1062.455,63585600000.0
1063.273,65650400000.0
1064.91,69429900000.0
1065.0,69629000000.0
1065.18,70003300000.0
1065.539,70760800000.0
1066.258,72264000000.0
1067.695,75345200000.0
1068.848,77598600000.0
1070.0,79415500000.0
1072.305,82997900000.0
1075.0,87177400000.0
1076.348,89342700000.0
1077.695,92434300000.0
1078.848,96261400000.0
1080.0,100898000000.0
1081.538,107724000000.0
1083.076,114367000000.0
1083.077,114373000000.0
1083.127,114589000000.0
1083.177,114787000000.0
1083.227,114991000000.0
1083.277,115196000000.0
1083.327,115417000000.0
1083.377,115616000000.0
1083.427,115830000000.0
1083.477,116021000000.0
1083.527,116212000000.0
1083.578,116387000000.0
1083.628,116576000000.0
1083.678,116758000000.0
1083.728,116937000000.0
1083.778,117129000000.0
1083.828,117313000000.0
1083.878,117501000000.0
1083.928,117687000000.0
1083.978,117881000000.0
1084.028,118057000000.0
1084.078,118237000000.0
1084.128,118426000000.0
1084.178,118602000000.0
1084.228,118793000000.0
1084.278,118978000000.0
1084.328,119165000000.0
1084.378,119349000000.0
1084.428,119528000000.0
1084.478,119719000000.0
1084.528,119902000000.0
1084.578,120088000000.0
1084.629,120270000000.0
1084.679,120452000000.0
1084.729,120637000000.0
1084.779,120821000000.0
1084.829,121007000000.0
1084.879,121188000000.0
1084.929,121372000000.0
1084.979,121562000000.0
1085.029,121746000000.0
1085.079,121927000000.0
1085.129,122111000000.0
1085.179,122293000000.0
1085.229,122474000000.0
1085.279,122657000000.0
1085.329,122841000000.0
1085.379,123027000000.0
1085.429,123213000000.0
1085.479,123392000000.0
1085.529,123579000000.0
1085.579,123750000000.0
1085.63,123930000000.0
1085.68,124121000000.0
1085.73,124294000000.0
1085.78,124470000000.0
1085.83,124655000000.0
1085.88,124838000000.0
1085.93,125014000000.0
1085.98,125209000000.0
1086.03,125392000000.0
1086.08,125561000000.0
1086.13,125755000000.0
1086.18,125930000000.0
1086.23,126117000000.0
1086.28,126300000000.0
1086.33,126485000000.0
1086.38,126664000000.0
1086.43,126861000000.0
1086.48,127041000000.0
1086.53,127223000000.0
1086.538,127257000000.0
1086.588,127443000000.0
1086.638,127616000000.0
1086.688,127814000000.0
1086.738,127997000000.0
1086.788,128185000000.0
1086.838,128361000000.0
1086.888,128562000000.0
1086.938,128747000000.0
1086.988,128938000000.0
1087.038,129134000000.0
1087.089,129317000000.0
1087.139,129508000000.0
1087.189,129684000000.0
1087.239,129879000000.0
1087.289,130074000000.0
1087.339,130258000000.0
1087.389,130458000000.0
1087.439,130643000000.0
1087.489,130839000000.0
1087.539,131026000000.0
1087.589,131227000000.0
1087.639,131413000000.0
1087.689,131609000000.0
1087.739,131792000000.0
1087.789,132002000000.0
1087.839,132191000000.0
1087.889,132384000000.0
1087.939,132574000000.0
1087.989,132784000000.0
1088.039,132975000000.0
1088.089,133168000000.0
1088.14,133360000000.0
1088.19,133563000000.0
1088.24,133759000000.0
1088.29,133954000000.0
1088.34,134158000000.0
1088.39,134346000000.0
1088.44,134563000000.0
1088.49,134756000000.0
1088.54,134945000000.0
1088.59,135146000000.0
1088.64,135341000000.0
1088.69,135552000000.0
1088.74,135748000000.0
1088.79,135949000000.0
1088.84,136147000000.0
1088.89,136359000000.0
1088.94,136562000000.0
1088.99,136761000000.0
1089.04,136965000000.0
1089.09,137156000000.0
1089.141,137355000000.0
1089.191,137577000000.0
1089.241,137770000000.0
1089.291,137985000000.0
1089.341,138178000000.0
1089.391,138381000000.0
1089.441,138603000000.0
1089.491,138799000000.0
1089.541,139013000000.0
1089.591,139209000000.0
1089.641,139413000000.0
1089.691,139628000000.0
1089.741,139834000000.0
1089.791,140041000000.0
1089.841,140252000000.0
1089.891,140458000000.0
1089.941,140677000000.0
1089.991,140878000000.0
1090.0,140917000000.0
1090.05,141129000000.0
1090.1,141342000000.0
1090.15,141539000000.0
1090.2,141761000000.0
1090.25,141987000000.0
1090.3,142191000000.0
1090.35,142415000000.0
1090.4,142622000000.0
1090.45,142832000000.0
1090.5,143050000000.0
1090.551,143266000000.0
1090.601,143473000000.0
1090.651,143709000000.0
1090.701,143900000000.0
1090.751,144081000000.0
1090.801,144284000000.0
1090.851,144466000000.0
1090.901,144654000000.0
1090.951,144850000000.0
1091.001,145043000000.0
1091.051,145226000000.0
1091.101,145428000000.0
1091.151,145612000000.0
1091.201,145806000000.0
1091.251,146004000000.0
1091.301,146195000000.0
1091.351,146381000000.0
1091.401,146592000000.0
1091.451,146780000000.0
1091.501,146974000000.0
1091.552,147172000000.0
1091.602,147374000000.0
1091.652,147574000000.0
1091.702,147759000000.0
1091.752,147973000000.0
1091.802,148164000000.0
1091.852,148354000000.0
1091.902,148549000000.0
1091.952,148753000000.0
1092.002,148954000000.0
1092.052,149138000000.0
1092.102,149341000000.0
1092.152,149547000000.0
1092.202,149744000000.0
1092.252,149937000000.0
1092.302,150142000000.0
1092.352,150345000000.0
1092.402,150547000000.0
1092.452,150742000000.0
1092.502,150949000000.0
1092.552,151152000000.0
1092.603,151359000000.0
1092.653,151557000000.0
1092.703,151750000000.0
1092.753,151974000000.0
1092.803,152172000000.0
1092.853,152375000000.0
1092.903,152575000000.0
