Wavelength,Flux
900.0,309671000.0
903.442,336993000.0
904.998,350041000.0
906.554,363541000.0
908.11,377507000.0
909.667,391964000.0
910.703,401856000.0
911.74,411982000.0
911.84,412970000.0
912.0,414557000.0
912.31,417645000.0
912.779,422356000.0
913.717,431924000.0
914.335,438642000.0
915.329,448820000.0
915.824,454126000.0
915.892,454860000.0
916.028,460530000.0
916.164,465453000.0
916.297,459674000.0
916.429,460689000.0
916.495,461412000.0
916.561,462656000.0
916.628,469284000.0
916.694,477384000.0
916.76,482708000.0
916.826,484781000.0
916.892,483400000.0
916.958,477513000.0
917.025,469689000.0
917.091,467962000.0
917.157,468696000.0
917.181,468964000.0
917.231,469519000.0
917.331,472673000.0
917.39,482603000.0
917.448,494104000.0
917.506,503597000.0
917.565,510622000.0
917.623,514919000.0
917.682,516768000.0
917.74,515948000.0
917.799,511743000.0
917.857,503439000.0
917.916,491947000.0
917.974,480918000.0
918.033,478497000.0
918.081,479040000.0
918.129,479585000.0
918.225,480677000.0
918.273,483178000.0
918.322,492731000.0
918.37,506566000.0
918.418,520330000.0
918.466,532130000.0
918.514,542082000.0
918.562,550077000.0
918.611,556187000.0
918.707,564518000.0
918.803,567210000.0
918.851,566121000.0
918.9,563046000.0
918.948,557794000.0
918.996,549759000.0
919.004,548068000.0
919.054,535938000.0
919.104,520869000.0
919.154,505329000.0
919.204,494457000.0
919.254,492469000.0
919.302,493030000.0
919.351,493594000.0
919.448,494724000.0
919.497,497729000.0
919.545,509724000.0
919.594,527698000.0
919.642,546736000.0
919.739,580371000.0
919.788,593844000.0
919.836,605086000.0
919.933,622307000.0
920.03,634704000.0
920.127,642536000.0
920.224,646074000.0
920.321,644708000.0
920.37,641649000.0
920.419,636527000.0
920.467,628981000.0
920.516,619197000.0
920.56,607566000.0
920.604,593055000.0
920.649,575966000.0
920.738,537998000.0
920.782,521417000.0
920.827,512603000.0
920.871,511532000.0
920.915,512064000.0
920.963,512636000.0
921.058,513780000.0
921.106,516659000.0
921.153,529479000.0
921.201,550448000.0
921.248,574151000.0
921.343,620845000.0
921.438,659744000.0
921.534,690390000.0
921.629,714153000.0
921.724,733137000.0
921.819,747708000.0
921.914,758902000.0
922.009,767221000.0
922.104,772636000.0
922.117,773135000.0
922.167,774489000.0
922.267,774084000.0
922.367,768470000.0
922.467,755948000.0
922.506,748601000.0
922.584,728700000.0
922.662,702173000.0
922.701,685865000.0
922.74,667510000.0
922.818,626949000.0
922.895,584220000.0
922.933,564540000.0
922.972,548548000.0
922.992,543006000.0
923.042,538196000.0
923.089,538755000.0
923.114,539069000.0
923.138,539370000.0
923.144,539446000.0
923.15,539522000.0
923.156,539597000.0
923.162,539672000.0
923.187,539987000.0
923.211,540289000.0
923.261,540975000.0
923.308,547037000.0
923.358,565946000.0
923.405,591996000.0
923.455,622546000.0
923.555,685201000.0
923.655,742099000.0
923.755,791432000.0
923.794,808112000.0
923.872,837579000.0
923.95,862610000.0
924.028,883886000.0
924.183,917610000.0
924.338,943083000.0
924.436,956050000.0
924.633,976010000.0
924.688,980254000.0
924.798,986749000.0
924.939,990619000.0
925.064,988822000.0
925.189,980419000.0
925.314,963186000.0
925.439,933341000.0
925.509,909599000.0
925.579,880115000.0
925.649,844454000.0
925.719,802652000.0
925.789,756250000.0
925.859,706878000.0
925.97,630468000.0
926.018,602155000.0
926.067,583438000.0
926.116,578034000.0
926.164,578646000.0
926.189,578980000.0
926.214,579315000.0
926.22,579395000.0
926.226,579476000.0
926.232,579555000.0
926.238,579636000.0
926.263,579972000.0
926.287,580294000.0
926.337,581006000.0
926.385,587758000.0
926.435,608927000.0
926.482,638258000.0
926.532,674013000.0
926.582,712514000.0
926.682,791106000.0
926.777,864804000.0
926.873,931193000.0
926.969,989087000.0
927.064,1038350000.0
927.16,1080110000.0
927.255,1116250000.0
927.263,1119020000.0
927.313,1135760000.0
927.413,1165900000.0
927.613,1214600000.0
927.813,1252430000.0
927.875,1262660000.0
927.999,1281370000.0
928.247,1312840000.0
928.487,1336460000.0
928.727,1353170000.0
928.967,1361050000.0
929.097,1360280000.0
929.227,1354700000.0
929.357,1342880000.0
929.487,1322880000.0
929.617,1292440000.0
929.706,1264440000.0
929.794,1228310000.0
929.883,1183910000.0
929.971,1131530000.0
930.06,1069450000.0
930.098,1039870000.0
930.174,976187000.0
930.25,907787000.0
930.326,838247000.0
930.402,771114000.0
930.478,709009000.0
930.491,699865000.0
930.541,667125000.0
930.589,646964000.0
930.639,641451000.0
930.687,642133000.0
930.711,642485000.0
930.736,642854000.0
930.742,642942000.0
930.748,643030000.0
930.754,643119000.0
930.76,643206000.0
930.785,643574000.0
930.809,643929000.0
930.859,644699000.0
930.907,651693000.0
930.957,674783000.0
931.005,708281000.0
931.055,749130000.0
931.105,793965000.0
931.155,841569000.0
931.255,941620000.0
931.355,1041690000.0
931.398,1083400000.0
931.484,1161790000.0
931.57,1233260000.0
931.657,1299340000.0
931.723,1345460000.0
931.79,1387400000.0
931.923,1461660000.0
932.057,1522980000.0
932.19,1575120000.0
932.324,1619900000.0
932.591,1693680000.0
932.857,1752800000.0
933.033,1785880000.0
933.384,1843230000.0
933.736,1892010000.0
934.087,1932990000.0
934.276,1952420000.0
934.654,1985500000.0
935.032,2008720000.0
935.41,2016960000.0
935.514,2015120000.0
935.722,2004070000.0
935.929,1980690000.0
936.137,1938670000.0
936.345,1873390000.0
936.552,1775820000.0
936.653,1715340000.0
936.753,1644610000.0
936.853,1561700000.0
936.954,1467740000.0
937.051,1366420000.0
937.148,1257970000.0
937.245,1143290000.0
937.342,1027580000.0
937.439,920213000.0
937.536,826659000.0
937.544,820489000.0
937.594,782574000.0
937.642,759053000.0
937.692,752834000.0
937.741,753644000.0
937.766,754067000.0
937.791,754493000.0
937.797,754594000.0
937.803,754695000.0
937.809,754797000.0
937.815,754900000.0
937.84,755325000.0
937.865,755749000.0
937.915,756626000.0
937.964,764591000.0
938.014,791445000.0
938.062,830127000.0
938.112,877576000.0
938.162,930362000.0
938.212,987257000.0
938.312,1110450000.0
938.412,1239200000.0
938.458,1298550000.0
938.55,1413490000.0
938.734,1627550000.0
938.853,1749520000.0
938.972,1857410000.0
939.09,1954770000.0
939.209,2040800000.0
939.327,2118320000.0
939.446,2186950000.0
939.564,2248400000.0
939.801,2351850000.0
940.038,2436000000.0
940.275,2506990000.0
940.434,2549600000.0
940.751,2625180000.0
941.386,2749100000.0
942.015,2850910000.0
942.644,2941410000.0
942.894,2975200000.0
943.393,3041280000.0
943.773,3087260000.0
944.532,3167890000.0
944.625,3176840000.0
944.811,3193930000.0
945.183,3224310000.0
945.478,3243810000.0
946.069,3264460000.0
946.364,3261270000.0
946.659,3244330000.0
946.869,3221470000.0
947.079,3187980000.0
947.289,3140550000.0
947.499,3078690000.0
947.709,2995620000.0
947.919,2887690000.0
948.128,2745830000.0
948.338,2566470000.0
948.509,2394210000.0
948.68,2193560000.0
948.73,2129410000.0
948.83,1993690000.0
948.93,1848610000.0
949.03,1699870000.0
949.08,1623240000.0
949.18,1468160000.0
949.28,1316850000.0
949.381,1180490000.0
949.43,1119120000.0
949.48,1064590000.0
949.53,1018260000.0
949.58,987780000.0
949.63,981210000.0
949.68,982280000.0
949.705,982817000.0
949.73,983354000.0
949.737,983505000.0
949.743,983634000.0
949.749,983764000.0
949.755,983892000.0
949.781,984452000.0
949.806,984991000.0
949.856,986078000.0
949.906,994849000.0
949.956,1027780000.0
950.006,1076860000.0
950.056,1134800000.0
950.106,1200050000.0
950.156,1269830000.0
950.256,1422980000.0
950.356,1586530000.0
950.406,1670060000.0
950.506,1834480000.0
950.707,2151930000.0
950.806,2298260000.0
951.005,2566220000.0
951.104,2687840000.0
951.203,2802930000.0
951.402,3011680000.0
951.601,3191800000.0
951.8,3346650000.0
951.998,3480670000.0
952.197,3598110000.0
952.407,3709690000.0
952.827,3897600000.0
953.246,4051230000.0
953.666,4179260000.0
954.008,4270320000.0
954.692,4430970000.0
955.609,4613190000.0
956.526,4776840000.0
957.211,4888920000.0
958.581,5109630000.0
958.812,5146800000.0
959.274,5221130000.0
960.199,5369770000.0
960.413,5402530000.0
960.776,5460990000.0
961.14,5517230000.0
961.376,5553850000.0
961.611,5590420000.0
962.081,5663990000.0
963.021,5812500000.0
963.251,5849280000.0
963.71,5923250000.0
964.629,6072460000.0
964.89,6115170000.0
965.412,6201110000.0
966.456,6370800000.0
966.53,6382820000.0
966.678,6406970000.0
966.975,6455230000.0
967.567,6551900000.0
968.169,6647620000.0
969.372,6833910000.0
969.809,6897890000.0
970.683,7015880000.0
971.065,7056040000.0
971.448,7032320000.0
971.653,6957280000.0
971.858,6894500000.0
971.908,6879390000.0
972.008,6846330000.0
972.108,6775660000.0
972.208,6709140000.0
972.268,6670620000.0
972.37,6608530000.0
972.473,6550770000.0
972.499,6536890000.0
972.524,6523820000.0
972.531,6520190000.0
972.537,6517110000.0
972.543,6514000000.0
972.55,6510440000.0
972.575,6497760000.0
972.601,6484710000.0
972.653,6458950000.0
972.703,6450010000.0
972.803,6437480000.0
972.806,6437100000.0
972.856,6430990000.0
972.956,6419060000.0
973.156,6396220000.0
973.216,6389780000.0
973.336,6383910000.0
973.456,6423030000.0
973.576,6462790000.0
973.626,6479620000.0
973.726,6513620000.0
973.926,6583110000.0
974.326,6761050000.0
974.726,6957270000.0
975.265,7215700000.0
975.804,7439490000.0
976.344,7632510000.0
976.905,7812960000.0
978.028,8188980000.0
978.544,8348220000.0
979.576,8650950000.0
980.184,8836180000.0
981.399,9153410000.0
981.823,9248810000.0
982.67,9441360000.0
983.463,9622600000.0
985.048,9991590000.0
985.102,10004200000.0
985.209,10029500000.0
985.423,10080400000.0
985.851,10182300000.0
986.708,10389300000.0
986.742,10397500000.0
986.81,10413900000.0
986.947,10446800000.0
987.221,10513100000.0
987.767,10645700000.0
988.381,10799300000.0
989.608,11108500000.0
990.021,11212200000.0
990.847,11419100000.0
991.66,11629400000.0
993.287,12078100000.0
993.3,12081900000.0
993.35,12096000000.0
993.45,12124400000.0
993.65,12181200000.0
993.85,12238700000.0
994.05,12296400000.0
994.25,12354700000.0
994.45,12412400000.0
994.65,12469900000.0
994.85,12527600000.0
995.05,12585700000.0
995.25,12642700000.0
995.45,12700300000.0
995.65,12758100000.0
995.85,12816600000.0
996.05,12874700000.0
996.25,12932300000.0
996.45,12990500000.0
996.65,13050200000.0
997.05,13170700000.0
997.849,13420200000.0
999.448,13931900000.0
1000.0,14114100000.0
1001.103,14463400000.0
1001.912,14723600000.0
1003.53,15250900000.0
1003.824,15346000000.0
1004.412,15536700000.0
1005.553,15905300000.0
1007.282,16458100000.0
1009.011,17002700000.0
1010.74,17528700000.0
1012.469,17976000000.0
1014.199,18301100000.0
1015.063,18398100000.0
1015.928,18432700000.0
1016.792,18388300000.0
1017.657,18255900000.0
1018.521,18031100000.0
1019.386,17701100000.0
1020.25,17245300000.0
1021.115,16644900000.0
1021.547,16275400000.0
1021.979,15840200000.0
1022.412,15305800000.0
1022.844,14656900000.0
1023.276,13853700000.0
1023.708,12839400000.0
1023.925,12247700000.0
1024.141,11482900000.0
1024.357,10675200000.0
1024.573,9798220000.0
1024.624,9570300000.0
1024.674,9341470000.0
1024.724,9112570000.0
1024.774,8876920000.0
1024.824,8637810000.0
1024.874,8391960000.0
1024.924,8135660000.0
1024.974,7878620000.0
1025.006,7714370000.0
1025.069,7381220000.0
1025.196,6650410000.0
1025.322,5866890000.0
1025.438,5190310000.0
1025.492,4906700000.0
1025.546,4673410000.0
1025.596,4542760000.0
1025.646,4512350000.0
1025.654,4512780000.0
1025.681,4514900000.0
1025.708,4517150000.0
1025.715,4517720000.0
1025.72,4518140000.0
1025.722,4518320000.0
1025.729,4518900000.0
1025.736,4519480000.0
1025.763,4521720000.0
1025.79,4523970000.0
1025.844,4540080000.0
1025.871,4579370000.0
1025.898,4650360000.0
1025.925,4748900000.0
1025.952,4870610000.0
1026.005,5149740000.0
1026.056,5445710000.0
1026.106,5755440000.0
1026.156,6075130000.0
1026.206,6406180000.0
1026.256,6734850000.0
1026.306,7054880000.0
1026.356,7367940000.0
1026.406,7666040000.0
1026.438,7848290000.0
1026.501,8191140000.0
1026.628,8882070000.0
1026.749,9500330000.0
1026.87,10091800000.0
1026.92,10330800000.0
1026.97,10575500000.0
1027.02,10807700000.0
1027.07,11017300000.0
1027.12,11223300000.0
1027.17,11427900000.0
1027.22,11631400000.0
1027.27,11839200000.0
1027.32,12048000000.0
1027.37,12259100000.0
1027.421,12471900000.0
1027.471,12688100000.0
1027.521,12886800000.0
1027.571,13051500000.0
1027.621,13214300000.0
1027.671,13376000000.0
1027.721,13535700000.0
1027.771,13695600000.0
1027.821,13856600000.0
1027.871,14017100000.0
1027.921,14176600000.0
1027.971,14337500000.0
1028.021,14488100000.0
1028.071,14621700000.0
1028.121,14754600000.0
1028.171,14885800000.0
1028.221,15015600000.0
1028.271,15145500000.0
1028.321,15276500000.0
1028.371,15408900000.0
1028.422,15544400000.0
1028.472,15682600000.0
1028.522,15810000000.0
1028.572,15921400000.0
1028.6,15984300000.0
1028.657,16109700000.0
1028.77,16360300000.0
1028.996,16861000000.0
1029.45,17707000000.0
1029.903,18477000000.0
1030.329,19137800000.0
1031.182,20478500000.0
1032.058,21821800000.0
1032.922,22977400000.0
1033.787,24057600000.0
1034.651,24936700000.0
1035.516,25808000000.0
1036.38,26947300000.0
1037.245,28327000000.0
1037.296,28410100000.0
1037.346,28492700000.0
1037.396,28575800000.0
1037.446,28659900000.0
1037.496,28744600000.0
1037.546,28815100000.0
1037.596,28885500000.0
1037.646,28955900000.0
1037.696,29026700000.0
1037.746,29098200000.0
1037.797,29170100000.0
1037.847,29242000000.0
1037.897,29314700000.0
1037.947,29387900000.0
1037.997,29461400000.0
1038.047,29528400000.0
1038.097,29595800000.0
1038.147,29662800000.0
1038.197,29730500000.0
1038.247,29798300000.0
1038.297,29866300000.0
1038.347,29934900000.0
1038.397,30003800000.0
1038.447,30073300000.0
1038.497,30142800000.0
1038.547,30207900000.0
1038.597,30272600000.0
1038.647,30337700000.0
1038.697,30402900000.0
1038.747,30468200000.0
1038.797,30533900000.0
1038.848,30599000000.0
1038.898,30664200000.0
1038.948,30729800000.0
1038.975,30765500000.0
1039.03,30831600000.0
1039.139,30954400000.0
1039.358,31202000000.0
1039.795,31656200000.0
1040.67,32518800000.0
1040.704,32553200000.0
1040.771,32621800000.0
1040.906,32759600000.0
1041.176,33033700000.0
1041.715,33572100000.0
1042.433,34252000000.0
1043.87,35606700000.0
1044.162,35888600000.0
1044.747,36445700000.0
1045.892,37561400000.0
1047.621,39237000000.0
1048.81,40397200000.0
1050.0,41628200000.0
1052.38,43845800000.0
1054.76,46118000000.0
1055.0,46359500000.0
1055.48,46848300000.0
1056.441,47786300000.0
1058.363,49511200000.0
1060.0,51336600000.0
1061.637,53563900000.0
1063.273,56083300000.0
1064.91,58549500000.0
1065.0,58680400000.0
1065.18,58937000000.0
1065.539,59457300000.0
1066.258,60499500000.0
1067.695,62636800000.0
1070.0,65669500000.0
1072.305,68648500000.0
1075.0,72233800000.0
1077.695,76275000000.0
1078.848,78615000000.0
1080.0,81290700000.0
1081.538,85087800000.0
1083.077,88958400000.0
1086.155,96182100000.0
1086.538,97037500000.0
1087.304,98773700000.0
1088.835,102364000000.0
1090.0,105240000000.0
1092.33,111018000000.0
1095.0,117777000000.0
1097.67,125172000000.0
1100.0,131925000000.0
1104.661,145650000000.0
1105.0,146738000000.0
1105.679,148927000000.0
1107.036,153442000000.0
1109.751,162058000000.0
1110.0,162864000000.0
1110.498,164494000000.0
1111.494,167778000000.0
1113.486,174531000000.0
1115.0,179883000000.0
1118.027,189787000000.0
1120.0,195529000000.0
1123.945,205230000000.0
1125.0,207320000000.0
1126.055,208288000000.0
1127.109,209066000000.0
1129.219,208763000000.0
1130.0,208091000000.0
1131.154,207074000000.0
1132.308,205113000000.0
1134.616,199923000000.0
1136.154,194925000000.0
1137.692,189628000000.0
1140.0,181118000000.0
1142.308,173500000000.0
1144.615,167193000000.0
1145.0,166418000000.0
1145.769,164473000000.0
1147.307,161726000000.0
1148.845,159619000000.0
1150.0,158203000000.0
1152.31,156266000000.0
1154.619,154930000000.0
1159.238,153104000000.0
1163.857,152042000000.0
1165.769,151836000000.0
1169.592,151917000000.0
1173.416,152304000000.0
1177.239,153215000000.0
1181.062,155115000000.0
1181.538,155449000000.0
1182.49,156195000000.0
1184.394,157974000000.0
1185.628,159294000000.0
1188.097,162187000000.0
1189.718,164087000000.0
1191.767,166046000000.0
1193.816,167296000000.0
1195.866,167726000000.0
1197.915,167508000000.0
1199.964,166856000000.0
1202.014,165645000000.0
1204.063,163229000000.0
1205.087,160898000000.0
1206.112,157847000000.0
1206.113,157843000000.0
1206.163,157663000000.0
1206.213,157485000000.0
1206.263,157311000000.0
1206.313,157139000000.0
1206.363,156969000000.0
1206.413,156802000000.0
1206.463,156636000000.0
1206.513,156451000000.0
1206.563,156215000000.0
1206.614,155983000000.0
1206.664,155755000000.0
1206.714,155531000000.0
1206.764,155311000000.0
1206.814,155094000000.0
1206.864,154882000000.0
1206.914,154673000000.0
1206.964,154465000000.0
1207.014,154234000000.0
1207.064,153949000000.0
1207.114,153670000000.0
1207.164,153396000000.0
1207.214,153126000000.0
1207.264,152861000000.0
1207.314,152604000000.0
1207.364,152352000000.0
1207.414,152106000000.0
1207.464,151865000000.0
1207.514,151611000000.0
1207.564,151322000000.0
1207.615,151038000000.0
1207.665,150760000000.0
1207.715,150488000000.0
1207.765,150219000000.0
1207.815,149950000000.0
1207.865,149684000000.0
1207.915,149422000000.0
1207.965,149164000000.0
1208.015,148894000000.0
1208.065,148598000000.0
1208.115,148308000000.0
1208.162,148040000000.0
1208.256,147518000000.0
1208.444,146527000000.0
1208.82,144155000000.0
1209.572,138570000000.0
1210.211,133586000000.0
1210.85,128264000000.0
1211.489,121926000000.0
1212.261,115220000000.0
1213.033,108836000000.0
1213.671,104677000000.0
1214.31,101295000000.0
1214.822,98503200000.0
1214.95,97238200000.0
1215.078,95409000000.0
1215.207,92458400000.0
1215.335,87844800000.0
1215.385,85656800000.0
1215.435,83438300000.0
1215.463,82339600000.0
1215.519,80764200000.0
1215.547,80453400000.0
1215.575,80391300000.0
1215.591,80403200000.0
1215.623,80435300000.0
1215.655,80467400000.0
1215.663,80475300000.0
1215.67,80482300000.0
1215.679,80491400000.0
1215.687,80499400000.0
1215.719,80531400000.0
1215.751,80563700000.0
1215.815,80966500000.0
1215.847,81721900000.0
1215.879,82895900000.0
1215.929,85211200000.0
1215.979,87742200000.0
1216.007,89167000000.0
1216.063,91953600000.0
1216.174,96892300000.0
1216.285,101094000000.0
1216.397,104934000000.0
1216.52,108812000000.0
1216.643,112025000000.0
1216.767,115165000000.0
1217.014,121745000000.0
1217.032,122155000000.0
1217.082,123292000000.0
1217.132,124464000000.0
1217.182,125679000000.0
1217.232,126910000000.0
1217.282,128173000000.0
1217.332,129486000000.0
1217.382,130884000000.0
1217.432,132356000000.0
1217.482,133909000000.0
1217.532,135193000000.0
1217.583,136324000000.0
1217.633,137482000000.0
1217.683,138676000000.0
1217.733,139910000000.0
1217.783,141163000000.0
1217.833,142459000000.0
1217.883,143809000000.0
1217.933,145238000000.0
1217.983,146735000000.0
1218.033,148008000000.0
1218.083,149171000000.0
1218.133,150374000000.0
1218.183,151605000000.0
1218.233,152873000000.0
1218.283,154196000000.0
1218.333,155567000000.0
1218.383,156979000000.0
1218.433,158457000000.0
1218.483,159995000000.0
1218.533,161161000000.0
1218.583,162121000000.0
1218.634,163106000000.0
1218.684,164119000000.0
1218.734,165160000000.0
1218.784,166233000000.0
1218.834,167337000000.0
1218.884,168474000000.0
1218.934,169646000000.0
1218.984,170847000000.0
1219.034,171948000000.0
1219.081,172945000000.0
1219.175,175026000000.0
1219.364,179614000000.0
1219.741,188247000000.0
1220.118,196034000000.0
1220.495,202040000000.0
1221.131,212620000000.0
1221.767,221492000000.0
1222.404,226573000000.0
1222.792,231355000000.0
1223.18,236605000000.0
1223.956,246125000000.0
1224.593,252313000000.0
1225.229,257305000000.0
1225.865,261256000000.0
1226.501,264447000000.0
1227.279,267839000000.0
1228.834,275007000000.0
1229.328,277319000000.0
1230.316,282316000000.0
1231.378,287523000000.0
1233.427,297692000000.0
1235.476,307349000000.0
1237.526,316509000000.0
1239.575,325028000000.0
1241.625,333478000000.0
1245.725,351243000000.0
1249.825,370028000000.0
