Wavelength,Flux
900.0,2559780.0
903.442,2836990.0
904.998,2971140.0
906.554,3111100.0
908.11,3257080.0
909.667,3409430.0
910.703,3514390.0
911.74,3622420.0
911.84,3633000.0
912.0,3649980.0
912.31,3683090.0
912.779,3733700.0
913.717,3836860.0
914.335,3918320.0
915.329,4020260.0
915.824,4078170.0
915.892,4086200.0
915.926,4090790.0
915.96,4128010.0
915.994,4213850.0
916.028,4274850.0
916.078,4341090.0
916.128,4374600.0
916.178,4371030.0
916.228,4324210.0
916.278,4210760.0
916.328,4138210.0
916.378,4143910.0
916.428,4149890.0
916.479,4155980.0
916.529,4162210.0
916.579,4258630.0
916.629,4443480.0
916.679,4575620.0
916.729,4673040.0
916.779,4734950.0
916.829,4761530.0
916.879,4744900.0
916.929,4677080.0
916.979,4546460.0
917.029,4336790.0
917.079,4228730.0
917.129,4234520.0
917.179,4240610.0
917.181,4240880.0
917.231,4246990.0
917.281,4253280.0
917.331,4374260.0
917.381,4652200.0
917.431,4889790.0
917.448,4960290.0
917.498,5139870.0
917.548,5280290.0
917.598,5380700.0
917.648,5440130.0
917.698,5454110.0
917.748,5415960.0
917.798,5319930.0
917.848,5149610.0
917.898,4917900.0
917.948,4648540.0
917.998,4373820.0
918.048,4347910.0
918.098,4354150.0
918.129,4358050.0
918.191,4365860.0
918.223,4369780.0
918.254,4391390.0
918.285,4532310.0
918.316,4741600.0
918.379,5143640.0
918.503,5904700.0
918.566,6198680.0
918.628,6417340.0
918.69,6565090.0
918.753,6637930.0
918.815,6629960.0
918.878,6526430.0
918.94,6308440.0
919.002,5968450.0
919.004,5957760.0
919.054,5619990.0
919.154,4918330.0
919.204,4587800.0
919.254,4500940.0
919.302,4507200.0
919.351,4513470.0
919.448,4526040.0
919.497,4618500.0
919.545,4958950.0
919.594,5317330.0
919.642,5720620.0
919.739,6587230.0
919.788,6993840.0
919.836,7348120.0
919.885,7669090.0
919.933,7923620.0
919.982,8133540.0
920.03,8298530.0
920.079,8424030.0
920.127,8507070.0
920.176,8546400.0
920.224,8539010.0
920.273,8482280.0
920.321,8374410.0
920.37,8207900.0
920.419,7984170.0
920.467,7686660.0
920.516,7334340.0
920.56,6953290.0
920.61,6487960.0
920.66,6015520.0
920.71,5577260.0
920.76,5191170.0
920.81,4833400.0
920.86,4712420.0
920.91,4719120.0
920.96,4725850.0
920.963,4726270.0
921.013,4733010.0
921.063,4739770.0
921.113,4853020.0
921.163,5229520.0
921.213,5636760.0
921.263,6103700.0
921.313,6622620.0
921.413,7686460.0
921.513,8644410.0
921.613,9460760.0
921.663,9799670.0
921.713,10099300.0
921.763,10360200.0
921.813,10582100.0
921.863,10765300.0
921.913,10912600.0
922.013,11102800.0
922.063,11149000.0
922.113,11160000.0
922.117,11159400.0
922.167,11131600.0
922.217,11065800.0
922.267,10959600.0
922.317,10805300.0
922.367,10596300.0
922.417,10338200.0
922.467,10037400.0
922.506,9762920.0
922.545,9456280.0
922.584,9122290.0
922.662,8375570.0
922.74,7553360.0
922.818,6699010.0
922.857,6304490.0
922.895,5945170.0
922.933,5621950.0
922.972,5336160.0
922.992,5170380.0
923.042,5014410.0
923.089,5020980.0
923.114,5024540.0
923.138,5027960.0
923.144,5028810.0
923.15,5029680.0
923.156,5030530.0
923.162,5031380.0
923.187,5034960.0
923.211,5038390.0
923.261,5045830.0
923.308,5216450.0
923.358,5619120.0
923.405,6033350.0
923.455,6540860.0
923.505,7104250.0
923.555,7696620.0
923.655,8862780.0
923.724,9624780.0
923.794,10346000.0
923.864,11014800.0
923.933,11639500.0
924.003,12191000.0
924.072,12708500.0
924.183,13407500.0
924.294,13981700.0
924.405,14428000.0
924.436,14531200.0
924.498,14711400.0
924.623,14963800.0
924.688,15037600.0
924.818,15060400.0
924.878,15010200.0
924.939,14918200.0
925.06,14593600.0
925.121,14352000.0
925.181,14048600.0
925.189,14007300.0
925.239,13717600.0
925.339,13037600.0
925.439,12239200.0
925.489,11794600.0
925.539,11313300.0
925.579,10922300.0
925.659,10075500.0
925.739,9166150.0
925.819,8204780.0
925.899,7236270.0
925.935,6839750.0
925.97,6479870.0
926.005,6154320.0
926.041,5865020.0
926.067,5633850.0
926.093,5481230.0
926.12,5470280.0
926.165,5477250.0
926.189,5480970.0
926.214,5484820.0
926.22,5485750.0
926.226,5486690.0
926.232,5487610.0
926.238,5488530.0
926.263,5492410.0
926.287,5496120.0
926.337,5503940.0
926.385,5684510.0
926.435,6124660.0
926.482,6573510.0
926.532,7124430.0
926.582,7739200.0
926.632,8389160.0
926.732,9679570.0
926.802,10547600.0
926.873,11382800.0
927.014,12936700.0
927.084,13656300.0
927.155,14345500.0
927.263,15314700.0
927.371,16175200.0
927.479,16937600.0
927.587,17596900.0
927.695,18168600.0
927.875,18954000.0
928.055,19563700.0
928.235,19996300.0
928.415,20258400.0
928.487,20316700.0
928.632,20351500.0
928.777,20273200.0
928.921,20073900.0
929.097,19657500.0
929.185,19371000.0
929.273,19040800.0
929.36,18650900.0
929.448,18188400.0
929.536,17658500.0
929.624,17045900.0
929.706,16403200.0
929.788,15681200.0
929.87,14900100.0
929.952,14052200.0
930.034,13147400.0
930.098,12402400.0
930.162,11617500.0
930.226,10798000.0
930.29,9943160.0
930.354,9066810.0
930.418,8200080.0
930.481,7426900.0
930.491,7324200.0
930.541,6822720.0
930.589,6371180.0
930.637,6208610.0
930.685,6216900.0
930.687,6217270.0
930.711,6221430.0
930.736,6225770.0
930.742,6226800.0
930.748,6227840.0
930.754,6228900.0
930.76,6229930.0
930.785,6234270.0
930.809,6238440.0
930.859,6247150.0
930.907,6427840.0
930.957,6921670.0
931.005,7430030.0
931.053,8013600.0
931.101,8669670.0
931.197,10069600.0
931.293,11439100.0
931.398,12868100.0
931.503,14217300.0
931.608,15476200.0
931.712,16661000.0
931.79,17484700.0
931.945,18954100.0
932.023,19602200.0
932.1,20203300.0
932.255,21279700.0
932.411,22231300.0
932.566,23043200.0
932.721,23735900.0
932.876,24336900.0
933.033,24849200.0
933.347,25649400.0
933.661,26219600.0
933.975,26642000.0
934.276,26919900.0
934.577,27083000.0
934.878,27116300.0
935.179,26998400.0
935.48,26659600.0
935.514,26601800.0
935.581,26478000.0
935.716,26160800.0
935.85,25764000.0
935.985,25271300.0
936.119,24672200.0
936.254,23936600.0
936.388,23082400.0
936.523,22097800.0
936.638,21102100.0
936.753,19960400.0
936.868,18663200.0
936.983,17223700.0
937.066,16138000.0
937.148,14973300.0
937.23,13744800.0
937.313,12450500.0
937.478,9789490.0
937.511,9307030.0
937.544,8866920.0
937.577,8464110.0
937.61,8114640.0
937.642,7738250.0
937.692,7545840.0
937.741,7555990.0
937.766,7561150.0
937.791,7566350.0
937.797,7567580.0
937.803,7568820.0
937.809,7570080.0
937.815,7571330.0
937.84,7576520.0
937.865,7581710.0
937.915,7592100.0
937.964,7807680.0
938.014,8392800.0
938.062,8993680.0
938.11,9680380.0
938.158,10456300.0
938.254,12119500.0
938.35,13753100.0
938.458,15512300.0
938.566,17178500.0
938.674,18740400.0
938.853,21137300.0
938.943,22204900.0
939.032,23193500.0
939.122,24098400.0
939.212,24919500.0
939.391,26432200.0
939.571,27718500.0
939.75,28808600.0
939.93,29726900.0
940.109,30490300.0
940.434,31572800.0
940.759,32461700.0
941.084,33218200.0
941.734,34402500.0
942.015,34817800.0
942.578,35557200.0
942.894,35938000.0
943.526,36660900.0
943.773,36908700.0
944.267,37343800.0
944.625,37617700.0
945.342,38037000.0
945.478,38098900.0
945.751,38183700.0
946.296,38152900.0
946.842,37765000.0
947.079,37429700.0
947.316,36960300.0
947.554,36247500.0
947.791,35188100.0
948.029,33739000.0
948.266,31778000.0
948.504,29322900.0
948.592,28209700.0
948.68,26998000.0
948.768,25664900.0
948.856,24235600.0
948.945,22736000.0
949.033,21117000.0
949.08,20235400.0
949.174,18360900.0
949.269,16395500.0
949.363,14362700.0
949.422,13179100.0
949.48,12144400.0
949.53,11377000.0
949.58,10663400.0
949.63,10421000.0
949.68,10434900.0
949.705,10441900.0
949.73,10448800.0
949.737,10450800.0
949.743,10452500.0
949.749,10454100.0
949.755,10455800.0
949.781,10463100.0
949.806,10470000.0
949.856,10484000.0
949.906,10757700.0
949.956,11507300.0
950.006,12314800.0
950.056,13237200.0
950.106,14289800.0
950.206,16558400.0
950.306,18792000.0
950.406,20944800.0
950.506,22995800.0
950.606,24921100.0
950.806,28516600.0
950.906,30109700.0
951.006,31575200.0
951.106,32909100.0
951.206,34113900.0
951.406,36324600.0
951.605,38169100.0
951.805,39728700.0
952.005,41002800.0
952.205,42034300.0
952.405,42914200.0
952.407,42923700.0
952.457,43130000.0
952.557,43526800.0
952.757,44258900.0
952.957,44913500.0
953.157,45513400.0
953.357,46058100.0
953.557,46551300.0
953.757,47008600.0
953.957,47449900.0
954.008,47563200.0
954.11,47787800.0
954.314,48239200.0
954.721,49170800.0
955.537,51162300.0
955.609,51351900.0
955.753,51741200.0
956.042,52514900.0
956.618,54208100.0
957.211,55968800.0
958.397,59849000.0
958.812,61297600.0
959.643,64462800.0
960.413,67445800.0
960.594,68213200.0
960.776,69739500.0
960.958,70587600.0
961.139,71477600.0
961.19,71746200.0
961.29,72224200.0
961.376,72617700.0
961.548,73405600.0
961.611,73694100.0
961.737,74276400.0
961.989,75461800.0
962.494,78000600.0
963.251,82072000.0
964.766,90198900.0
964.89,90745100.0
965.139,91826200.0
965.637,94011900.0
966.53,97497100.0
966.94,98175800.0
967.349,98646000.0
967.759,98430000.0
968.169,97382700.0
968.219,97164100.0
968.319,96740500.0
968.519,95946000.0
968.719,95132000.0
968.919,93669200.0
969.119,92454300.0
969.319,91390400.0
969.519,90200000.0
969.719,89089800.0
969.809,88646000.0
969.989,87867600.0
970.349,85998400.0
971.069,83081300.0
971.163,82788600.0
971.258,82530200.0
971.306,82412900.0
971.353,81868200.0
971.401,80488400.0
971.448,79463700.0
971.498,78629900.0
971.598,77460100.0
971.698,76667600.0
971.858,75846800.0
972.018,75306600.0
972.268,74434000.0
972.37,74253300.0
972.473,74131100.0
972.499,74103800.0
972.524,74074900.0
972.531,74065100.0
972.537,74054500.0
972.543,74047400.0
972.55,74039700.0
972.575,74013800.0
972.601,73987800.0
972.653,73932500.0
972.703,73944600.0
972.803,73996000.0
972.806,73997600.0
972.856,74024000.0
972.956,74079800.0
973.156,74190300.0
973.216,74221700.0
973.336,74314300.0
973.576,74994700.0
973.626,75134700.0
973.726,75415100.0
973.926,75979700.0
974.326,77266600.0
975.126,79966200.0
975.265,80504300.0
975.544,81509500.0
976.101,83705600.0
976.905,86943200.0
977.709,91099200.0
978.512,96710600.0
978.544,96971500.0
978.608,97511700.0
978.735,98518000.0
978.989,100546000.0
979.244,102946000.0
979.498,105922000.0
979.752,109749000.0
980.007,114805000.0
980.184,118251000.0
980.361,122445000.0
980.539,127697000.0
980.893,137353000.0
981.247,146937000.0
981.535,153461000.0
981.823,158865000.0
982.398,169677000.0
982.931,179110000.0
983.463,187682000.0
983.995,196918000.0
984.528,208512000.0
985.102,220769000.0
985.676,231686000.0
986.251,241812000.0
986.742,251568000.0
986.988,256016000.0
987.233,260492000.0
987.479,264503000.0
987.724,264134000.0
987.755,264089000.0
987.786,264043000.0
987.817,280351000.0
987.847,280243000.0
987.878,280135000.0
987.909,280028000.0
987.939,279920000.0
987.97,279813000.0
988.001,279707000.0
988.031,279622000.0
988.062,279537000.0
988.093,279451000.0
988.124,279366000.0
988.154,279256000.0
988.185,279116000.0
988.216,278977000.0
988.277,278700000.0
988.381,278235000.0
988.589,277336000.0
988.797,276476000.0
989.005,279019000.0
989.42,284810000.0
989.721,286385000.0
990.021,286979000.0
990.321,284967000.0
990.622,279929000.0
990.922,275623000.0
991.222,273848000.0
991.66,273064000.0
991.879,275740000.0
992.098,278414000.0
992.317,281983000.0
992.536,287741000.0
992.754,293477000.0
992.973,299889000.0
993.192,309189000.0
993.3,314024000.0
993.516,324288000.0
993.947,347457000.0
994.378,372973000.0
994.594,379860000.0
994.81,386792000.0
995.026,393683000.0
995.241,392759000.0
995.673,390949000.0
996.104,393385000.0
996.535,401014000.0
996.65,406318000.0
996.765,411751000.0
996.994,423020000.0
997.223,438156000.0
997.452,458153000.0
997.681,480722000.0
997.91,504958000.0
998.139,531298000.0
998.368,560912000.0
998.598,587992000.0
998.827,608799000.0
999.285,644958000.0
999.4,647777000.0
999.514,650711000.0
999.571,652831000.0
999.629,654935000.0
999.657,655982000.0
999.686,657025000.0
999.715,658065000.0
999.743,803655000.0
999.772,804847000.0
999.822,806917000.0
999.922,808870000.0
1000.0,806764000.0
1000.156,803780000.0
1000.469,797168000.0
1000.782,776164000.0
1001.095,751629000.0
1001.721,698624000.0
1001.912,684299000.0
1002.293,656340000.0
1003.055,601148000.0
1003.824,548612000.0
1004.208,524323000.0
1004.593,501436000.0
1004.977,480541000.0
1005.361,460340000.0
1005.553,450962000.0
1005.936,433404000.0
1006.703,400562000.0
1007.282,379458000.0
1007.861,360012000.0
1008.436,342550000.0
1009.011,327276000.0
1009.586,313646000.0
1010.161,300937000.0
1010.74,289701000.0
1011.319,279734000.0
1011.894,270809000.0
1012.469,263001000.0
1013.044,255941000.0
1013.619,249920000.0
1014.199,244556000.0
1014.779,240056000.0
1015.359,236195000.0
1015.928,233125000.0
1017.066,228556000.0
1017.657,226922000.0
1018.84,224938000.0
1019.386,224413000.0
1020.479,224210000.0
1021.115,224468000.0
1021.751,224510000.0
1022.387,222689000.0
1022.844,219544000.0
1023.072,217302000.0
1023.301,214077000.0
1023.529,209799000.0
1023.757,203322000.0
1023.985,196047000.0
1024.214,185145000.0
1024.394,176187000.0
1024.574,165441000.0
1024.754,152664000.0
1024.934,138548000.0
1025.006,132354000.0
1025.149,118931000.0
1025.221,111181000.0
1025.293,102704000.0
1025.364,93652100.0
1025.436,84514700.0
1025.438,84260600.0
1025.488,78473400.0
1025.538,73563500.0
1025.546,72852600.0
1025.596,69175500.0
1025.646,67247700.0
1025.654,67178900.0
1025.681,67166700.0
1025.708,67207400.0
1025.715,67218000.0
1025.72,67225600.0
1025.722,67228600.0
1025.729,67239200.0
1025.736,67249700.0
1025.763,67290500.0
1025.79,67334700.0
1025.817,67564700.0
1025.844,68453600.0
1025.871,70041500.0
1025.898,72133500.0
1025.925,74474400.0
1025.952,77152700.0
1026.005,83270800.0
1026.056,89831800.0
1026.106,96605900.0
1026.156,103328000.0
1026.206,109768000.0
1026.256,115859000.0
1026.306,121682000.0
1026.356,127175000.0
1026.406,132260000.0
1026.438,135405000.0
1026.501,141341000.0
1026.628,152622000.0
1026.749,162660000.0
1026.87,172177000.0
1026.92,175931000.0
1026.97,179631000.0
1027.02,183152000.0
1027.07,186241000.0
1027.12,189251000.0
1027.17,192218000.0
1027.22,195089000.0
1027.27,197933000.0
1027.32,200717000.0
1027.37,203612000.0
1027.421,206496000.0
1027.471,209409000.0
1027.521,212044000.0
1027.571,214233000.0
1027.621,216361000.0
1027.671,218391000.0
1027.721,220390000.0
1027.771,222369000.0
1027.821,224329000.0
1027.871,226284000.0
1027.921,228221000.0
1027.971,230114000.0
1028.021,231864000.0
1028.071,233369000.0
1028.121,234795000.0
1028.171,236208000.0
1028.221,237602000.0
1028.271,238980000.0
1028.321,240300000.0
1028.371,241572000.0
1028.422,242818000.0
1028.472,244045000.0
1028.522,245170000.0
1028.572,246162000.0
1028.6,246733000.0
1028.657,247831000.0
1028.77,249994000.0
1028.996,254263000.0
1029.45,261079000.0
1029.903,266956000.0
1030.329,271585000.0
1031.182,281034000.0
1032.058,292077000.0
1033.787,316025000.0
1035.516,339940000.0
1035.948,348290000.0
1036.381,358505000.0
1036.813,371831000.0
1037.246,388441000.0
1037.678,407192000.0
1038.111,427024000.0
1038.543,449153000.0
1038.975,474082000.0
1039.839,519448000.0
1040.703,566057000.0
1040.754,569239000.0
1040.804,572399000.0
1040.854,575599000.0
1040.904,578841000.0
1040.954,582126000.0
1041.004,585445000.0
1041.054,588689000.0
1041.104,591974000.0
1041.154,595299000.0
1041.204,598666000.0
1041.255,602076000.0
1041.305,605530000.0
1041.355,609030000.0
1041.405,612577000.0
1041.455,616170000.0
1041.505,619767000.0
1041.555,622981000.0
1041.605,626226000.0
1041.655,629500000.0
1041.705,632806000.0
1041.755,636144000.0
1041.805,639514000.0
1041.855,642916000.0
1041.905,646352000.0
1041.955,649821000.0
1042.005,653279000.0
1042.055,656394000.0
1042.105,659529000.0
1042.155,662684000.0
1042.205,665861000.0
1042.255,669058000.0
1042.306,672276000.0
1042.356,675516000.0
1042.406,678777000.0
1042.433,680568000.0
1042.488,684169000.0
1042.597,691333000.0
1042.816,705931000.0
1043.253,737228000.0
1043.691,771662000.0
1044.128,809126000.0
1044.162,812120000.0
1044.229,818157000.0
1044.364,830447000.0
1044.634,856010000.0
1045.173,912505000.0
1045.442,944442000.0
1045.712,979748000.0
1045.892,1004950000.0
1046.252,1056960000.0
1046.973,1161580000.0
1047.297,1201550000.0
1047.621,1241050000.0
1048.269,1325340000.0
1048.54,1366910000.0
1048.81,1417930000.0
1049.351,1533680000.0
1049.892,1654090000.0
1050.0,1678830000.0
1050.216,1715690000.0
1050.432,1753250000.0
1050.647,1782810000.0
1050.863,1809760000.0
1051.295,1857610000.0
1052.158,1942010000.0
1053.021,2011480000.0
1053.453,2034240000.0
1053.885,2053190000.0
1054.748,2110780000.0
1055.0,2132680000.0
1055.504,2179080000.0
1056.008,2206350000.0
1056.512,2196270000.0
1057.016,2154590000.0
1057.52,2103830000.0
1058.023,2069550000.0
1058.527,2069760000.0
1059.031,2109730000.0
1059.535,2189460000.0
1059.768,2241840000.0
1060.0,2296080000.0
1060.232,2364980000.0
1060.465,2437580000.0
1060.697,2526730000.0
1060.93,2624380000.0
1061.162,2742350000.0
1061.395,2877500000.0
1061.627,3037520000.0
1061.859,3225340000.0
1062.092,3444450000.0
1062.324,3707490000.0
1062.557,4011540000.0
1062.789,4368870000.0
1063.021,4785760000.0
1063.254,5242260000.0
1063.486,5774990000.0
1063.719,6316960000.0
1063.951,6944850000.0
1064.184,7550650000.0
1064.648,8827850000.0
1065.0,9804130000.0
1065.703,11643000000.0
1066.055,12642800000.0
1066.406,13724300000.0
1066.758,14881300000.0
1067.109,16085400000.0
1067.461,17266700000.0
1067.812,18126100000.0
1067.988,18548000000.0
1068.164,18671000000.0
1068.34,18770100000.0
1068.516,18837300000.0
1068.691,18600800000.0
1068.867,18367800000.0
1069.043,18076400000.0
1069.219,17605900000.0
1069.57,16673800000.0
1070.0,15443700000.0
1070.215,14887500000.0
1070.43,14359800000.0
1070.645,13918700000.0
1070.859,13524800000.0
1071.074,13185800000.0
1071.289,12929700000.0
1071.719,12512000000.0
1072.148,12196900000.0
1072.578,11904600000.0
1073.008,11553300000.0
1073.438,11052700000.0
1073.867,10437700000.0
1074.297,9762900000.0
1075.0,8693110000.0
1075.352,8258370000.0
1075.703,7919520000.0
1076.055,7670370000.0
1076.406,7560070000.0
1076.758,7580820000.0
1077.109,7710780000.0
1077.285,7847620000.0
1077.461,7988460000.0
1077.637,8214770000.0
1077.812,8475570000.0
1077.988,8749000000.0
1078.164,9136250000.0
1078.34,9558540000.0
1078.516,10018300000.0
1078.691,10602300000.0
1078.867,11240300000.0
1079.043,11955700000.0
1079.219,12802400000.0
1079.395,13745400000.0
1079.57,14814000000.0
1079.746,16035300000.0
1079.922,17410000000.0
1080.0,18075800000.0
1080.156,19483700000.0
1080.312,21059600000.0
1080.469,22836100000.0
1080.625,24736900000.0
1080.781,26840600000.0
1080.938,29204100000.0
1081.094,31707500000.0
1081.25,34405200000.0
1081.406,37453300000.0
1081.538,40220600000.0
1081.801,46042700000.0
1081.933,49400500000.0
1082.065,52818800000.0
1082.328,60005100000.0
1082.46,64116200000.0
1082.592,68099900000.0
1082.855,76633500000.0
1083.077,84468700000.0
1083.299,92303500000.0
1083.521,101024000000.0
1083.743,109188000000.0
1084.187,126780000000.0
1084.63,144727000000.0
1085.518,180319000000.0
1086.028,199232000000.0
1086.538,217596000000.0
1087.558,252284000000.0
1088.068,268105000000.0
1088.578,283216000000.0
1089.597,312068000000.0
1090.0,322110000000.0
1090.805,341930000000.0
1091.611,358753000000.0
1092.416,373379000000.0
1093.222,386329000000.0
1094.027,398170000000.0
1095.0,410837000000.0
1095.973,420275000000.0
1096.946,428404000000.0
1097.919,431125000000.0
1098.892,432581000000.0
1099.446,430661000000.0
1100.0,427959000000.0
1101.108,421513000000.0
1102.217,411133000000.0
1103.325,399700000000.0
1105.0,379706000000.0
1105.837,366185000000.0
1106.675,352910000000.0
1107.512,337384000000.0
1108.35,320854000000.0
1109.175,304109000000.0
1110.0,284065000000.0
1111.65,243927000000.0
1112.476,223332000000.0
1113.301,204297000000.0
1114.126,186511000000.0
1114.951,170387000000.0
1115.0,169480000000.0
1115.098,167531000000.0
1115.293,163710000000.0
1115.684,156351000000.0
1116.465,142676000000.0
1117.246,129575000000.0
1118.027,116418000000.0
1118.809,104701000000.0
1119.404,95064800000.0
1120.0,85734500000.0
1120.596,77395300000.0
1121.191,69194300000.0
1122.383,53208300000.0
1122.979,46840200000.0
