Wavelength,Flux
900.0,52364300.0
903.442,57371600.0
904.998,59774500.0
906.554,62268600.0
908.11,64856600.0
909.667,67543400.0
910.703,69386800.0
911.74,71277500.0
911.84,71462300.0
912.0,71758800.0
912.31,72336400.0
912.779,73218500.0
913.717,75011800.0
914.335,76216000.0
915.329,78187000.0
915.824,79186000.0
915.892,79324400.0
916.028,79736300.0
916.3,80179200.0
916.429,80423000.0
916.686,81437500.0
916.944,82031200.0
917.181,81984700.0
917.3,82250500.0
917.418,83302000.0
917.448,83558200.0
917.507,83995200.0
917.626,84569200.0
917.745,84883700.0
917.863,84738500.0
918.101,83931800.0
918.129,83992700.0
918.186,84114600.0
918.3,84809000.0
918.357,85748600.0
918.413,86563700.0
918.527,87772000.0
918.641,88566000.0
918.755,89102200.0
918.869,89384700.0
918.982,89229600.0
919.004,89117400.0
919.054,88703600.0
919.154,87282900.0
919.254,86433200.0
919.302,86539900.0
919.351,86646700.0
919.448,86860800.0
919.545,88194300.0
919.642,90531000.0
919.739,92318300.0
919.836,93606500.0
920.03,95326900.0
920.224,96378900.0
920.419,96668100.0
920.489,96399500.0
920.56,95761900.0
920.631,94663000.0
920.701,93018300.0
920.843,90019900.0
920.903,90126600.0
920.963,90263700.0
921.023,90401000.0
921.083,90569600.0
921.113,90920100.0
921.143,91671400.0
921.193,93390400.0
921.243,95223000.0
921.343,98522300.0
921.443,100967000.0
921.543,102748000.0
921.643,104147000.0
921.843,106160000.0
922.043,107672000.0
922.117,108111000.0
922.265,108759000.0
922.385,108956000.0
922.506,108638000.0
922.627,107437000.0
922.687,106319000.0
922.747,104731000.0
922.807,102658000.0
922.868,100146000.0
922.895,98992200.0
922.949,96803400.0
922.992,95512900.0
923.035,95124600.0
923.077,95214400.0
923.089,95242900.0
923.114,95303000.0
923.138,95360700.0
923.144,95375000.0
923.15,95389600.0
923.156,95403900.0
923.162,95418300.0
923.187,95478400.0
923.211,95536100.0
923.261,95661600.0
923.308,96280400.0
923.358,98148900.0
923.405,100426000.0
923.455,103086000.0
923.555,108148000.0
923.655,112203000.0
923.755,115227000.0
923.794,116226000.0
923.872,117922000.0
924.028,120541000.0
924.183,122590000.0
924.436,125188000.0
924.688,127269000.0
924.939,128885000.0
925.189,129707000.0
925.314,129567000.0
925.439,128783000.0
925.509,127922000.0
925.579,126626000.0
925.649,124735000.0
925.719,122186000.0
925.789,118852000.0
925.859,114741000.0
925.97,107613000.0
926.018,105054000.0
926.067,103197000.0
926.116,102764000.0
926.164,102885000.0
926.189,102950000.0
926.214,103014000.0
926.22,103029000.0
926.226,103045000.0
926.232,103060000.0
926.238,103076000.0
926.263,103140000.0
926.287,103202000.0
926.337,103334000.0
926.385,104023000.0
926.435,106250000.0
926.482,109073000.0
926.532,112699000.0
926.582,116524000.0
926.682,123798000.0
926.777,129617000.0
926.873,134221000.0
926.969,137853000.0
927.064,140702000.0
927.255,145011000.0
927.263,145163000.0
927.313,146075000.0
927.413,147708000.0
927.613,150487000.0
927.813,152901000.0
927.875,153597000.0
927.999,154928000.0
928.247,157391000.0
928.487,159558000.0
928.967,163160000.0
929.097,163881000.0
929.357,164723000.0
929.532,164539000.0
929.706,163289000.0
929.88,160270000.0
930.055,154341000.0
930.098,152232000.0
930.185,146985000.0
930.228,143837000.0
930.271,140294000.0
930.358,132560000.0
930.491,120753000.0
930.54,117599000.0
930.589,115420000.0
930.638,114998000.0
930.687,115135000.0
930.711,115204000.0
930.736,115276000.0
930.742,115293000.0
930.748,115310000.0
930.754,115327000.0
930.76,115344000.0
930.785,115415000.0
930.809,115484000.0
930.859,115629000.0
930.907,116333000.0
930.955,118762000.0
931.003,122160000.0
931.005,122335000.0
931.055,126880000.0
931.155,137202000.0
931.255,147405000.0
931.326,153867000.0
931.398,159460000.0
931.47,164337000.0
931.541,168467000.0
931.684,175360000.0
931.79,179266000.0
931.896,182583000.0
932.107,187886000.0
932.319,191963000.0
932.531,195416000.0
932.954,201303000.0
933.033,202293000.0
933.191,204206000.0
933.506,207820000.0
934.137,214488000.0
934.276,215882000.0
934.554,218588000.0
935.11,223429000.0
935.514,226239000.0
935.918,227769000.0
936.322,226400000.0
936.538,223182000.0
936.753,216636000.0
936.852,212150000.0
936.951,206302000.0
937.049,199098000.0
937.148,190231000.0
937.247,179589000.0
937.346,167309000.0
937.543,143730000.0
937.594,139749000.0
937.642,137173000.0
937.692,136726000.0
937.741,136888000.0
937.766,136972000.0
937.791,137055000.0
937.797,137075000.0
937.803,137095000.0
937.809,137115000.0
937.815,137135000.0
937.84,137218000.0
937.865,137302000.0
937.915,137470000.0
937.964,138253000.0
938.013,141253000.0
938.062,145465000.0
938.111,150934000.0
938.16,157183000.0
938.258,170879000.0
938.356,184504000.0
938.458,197220000.0
938.56,208357000.0
938.662,217912000.0
938.764,226128000.0
938.853,232363000.0
939.031,242501000.0
939.21,250243000.0
939.388,256444000.0
939.567,261530000.0
939.924,269910000.0
940.281,276641000.0
940.434,279216000.0
940.741,284023000.0
941.354,292719000.0
942.015,301376000.0
942.894,312382000.0
943.773,323118000.0
944.625,333257000.0
945.478,342881000.0
946.279,350451000.0
947.079,354061000.0
947.479,352462000.0
947.879,345803000.0
948.08,340030000.0
948.28,331756000.0
948.48,320218000.0
948.68,303896000.0
948.78,293740000.0
948.88,282103000.0
948.98,269199000.0
949.08,254669000.0
949.13,246786000.0
949.23,230204000.0
949.43,197144000.0
949.48,190705000.0
949.53,185879000.0
949.58,182473000.0
949.63,182069000.0
949.68,182284000.0
949.705,182392000.0
949.73,182500000.0
949.737,182530000.0
949.743,182556000.0
949.749,182582000.0
949.755,182608000.0
949.781,182720000.0
949.806,182828000.0
949.856,183045000.0
949.906,183885000.0
949.956,187754000.0
950.006,193072000.0
950.056,200073000.0
950.106,208186000.0
950.156,217090000.0
950.256,235793000.0
950.406,262739000.0
950.556,286742000.0
950.706,307880000.0
950.806,320379000.0
950.906,331749000.0
951.006,341923000.0
951.205,359224000.0
951.405,373505000.0
951.605,385648000.0
951.805,396217000.0
952.004,405207000.0
952.204,412749000.0
952.407,419634000.0
952.813,431340000.0
953.625,450373000.0
954.008,458153000.0
954.774,472194000.0
955.609,486532000.0
957.211,513338000.0
958.812,540840000.0
960.413,567764000.0
960.776,574025000.0
961.14,580273000.0
961.376,584357000.0
961.611,588451000.0
962.081,596717000.0
963.021,613577000.0
963.251,617759000.0
963.71,626224000.0
964.629,643522000.0
964.89,648223000.0
965.412,657639000.0
966.456,676785000.0
966.53,678160000.0
966.678,680920000.0
966.975,686458000.0
967.567,697678000.0
968.169,709194000.0
969.372,732460000.0
969.809,740942000.0
970.683,757942000.0
971.448,770238000.0
971.653,769042000.0
971.858,768014000.0
971.908,767845000.0
972.008,767531000.0
972.208,763685000.0
972.268,762588000.0
972.37,760512000.0
972.473,758352000.0
972.499,757806000.0
972.524,757296000.0
972.531,757156000.0
972.537,757039000.0
972.543,756920000.0
972.55,756785000.0
972.575,756300000.0
972.601,755803000.0
972.653,754826000.0
972.703,754808000.0
972.803,755079000.0
972.806,755088000.0
972.856,755224000.0
972.956,755504000.0
973.156,756108000.0
973.216,756295000.0
973.336,757117000.0
973.576,764471000.0
973.626,766020000.0
973.726,769141000.0
973.926,775483000.0
974.326,790530000.0
975.126,821402000.0
975.265,826630000.0
975.544,835918000.0
976.101,853778000.0
976.905,877028000.0
978.512,926022000.0
978.544,926952000.0
978.608,928800000.0
978.735,932306000.0
978.989,939192000.0
979.498,953050000.0
980.184,971864000.0
981.556,1007950000.0
981.823,1014840000.0
982.357,1028770000.0
983.424,1057090000.0
983.463,1058130000.0
983.54,1060200000.0
983.694,1064320000.0
984.003,1072560000.0
984.62,1089310000.0
985.102,1102600000.0
986.065,1129610000.0
986.742,1148880000.0
988.095,1188130000.0
988.381,1196570000.0
988.953,1213650000.0
990.021,1246020000.0
991.66,1297010000.0
993.3,1350530000.0
996.58,1463540000.0
996.65,1466030000.0
996.79,1471030000.0
997.07,1481080000.0
997.63,1501560000.0
998.75,1543590000.0
1000.0,1591250000.0
1001.912,1665900000.0
1003.824,1743390000.0
1005.553,1815600000.0
1007.282,1890190000.0
1009.011,1964940000.0
1010.74,2039150000.0
1012.469,2112330000.0
1014.199,2183680000.0
1015.928,2243460000.0
1016.792,2265500000.0
1017.657,2280230000.0
1018.521,2285520000.0
1019.386,2277770000.0
1020.25,2252760000.0
1021.115,2206050000.0
1021.979,2130470000.0
1022.844,2020650000.0
1023.276,1947080000.0
1023.708,1850490000.0
1024.141,1725850000.0
1024.573,1567730000.0
1024.624,1544850000.0
1024.674,1521860000.0
1024.724,1499220000.0
1024.774,1475720000.0
1024.824,1451410000.0
1024.874,1425810000.0
1024.924,1399660000.0
1024.974,1372210000.0
1025.006,1354300000.0
1025.069,1316810000.0
1025.196,1231250000.0
1025.259,1181780000.0
1025.322,1128990000.0
1025.438,1033610000.0
1025.492,995773000.0
1025.546,967557000.0
1025.596,952401000.0
1025.646,948632000.0
1025.654,948724000.0
1025.681,949214000.0
1025.708,949724000.0
1025.715,949855000.0
1025.72,949950000.0
1025.722,949989000.0
1025.729,950122000.0
1025.736,950253000.0
1025.763,950764000.0
1025.79,951277000.0
1025.844,953966000.0
1025.871,959106000.0
1025.898,968003000.0
1025.952,994919000.0
1025.979,1012570000.0
1026.005,1032450000.0
1026.056,1074340000.0
1026.106,1119190000.0
1026.156,1164250000.0
1026.206,1208930000.0
1026.256,1251710000.0
1026.306,1291450000.0
1026.356,1329160000.0
1026.406,1364050000.0
1026.438,1385300000.0
1026.501,1424320000.0
1026.628,1499410000.0
1026.87,1627700000.0
1027.112,1740730000.0
1027.355,1840700000.0
1027.597,1934670000.0
1027.839,2015910000.0
1028.082,2094150000.0
1028.566,2228390000.0
1028.6,2236340000.0
1028.668,2252220000.0
1028.803,2284200000.0
1029.073,2346940000.0
1029.614,2459270000.0
1030.155,2564750000.0
1030.329,2596670000.0
1030.676,2661790000.0
1031.37,2793350000.0
1032.058,2914070000.0
1032.745,3019180000.0
1033.433,3115610000.0
1033.787,3163470000.0
1034.495,3245260000.0
1035.516,3355600000.0
1036.381,3467020000.0
1037.246,3588850000.0
1038.975,3802410000.0
1040.704,3979030000.0
1042.433,4152360000.0
1044.162,4326980000.0
1045.892,4506420000.0
1047.621,4688820000.0
1048.81,4817900000.0
1050.0,4953020000.0
1052.38,5216560000.0
1055.0,5518220000.0
1057.62,5831350000.0
1060.0,6133450000.0
1062.38,6483430000.0
1064.76,6864260000.0
1065.0,6902340000.0
1065.48,6977070000.0
1066.441,7125340000.0
1068.363,7430520000.0
1070.0,7696000000.0
1073.273,8213290000.0
1075.0,8498450000.0
1078.453,9146450000.0
1080.0,9486410000.0
1081.538,9846420000.0
1083.077,10198200000.0
1086.155,10909500000.0
1086.538,10997300000.0
1087.304,11175300000.0
1088.835,11544000000.0
1090.0,11837300000.0
1092.33,12458700000.0
1095.0,13170300000.0
1097.67,13926000000.0
1100.0,14640900000.0
1104.661,16090300000.0
1105.0,16194300000.0
1105.679,16406100000.0
1107.036,16847800000.0
1109.751,17779400000.0
1110.0,17867700000.0
1110.498,18034100000.0
1111.494,18359000000.0
1113.486,19018900000.0
1115.0,19536500000.0
1118.027,20559000000.0
1120.0,21188700000.0
1121.973,21684600000.0
1123.945,22132700000.0
1125.0,22348000000.0
1127.109,22629400000.0
1129.219,22796700000.0
1130.0,22794000000.0
1131.154,22795600000.0
1132.308,22742300000.0
1134.616,22595100000.0
1136.154,22440100000.0
1139.23,22144400000.0
1140.0,22051500000.0
1141.539,21940200000.0
1144.617,21848000000.0
1145.0,21856800000.0
1145.766,21842700000.0
1147.297,21885200000.0
1150.0,22017300000.0
1152.703,22213100000.0
1155.406,22414300000.0
1158.109,22606500000.0
1160.812,22823600000.0
1163.516,23011600000.0
1165.769,23169300000.0
1170.276,23465700000.0
1174.783,23834600000.0
1179.29,24356800000.0
1181.538,24719400000.0
1185.628,25575400000.0
1189.718,26591000000.0
1191.767,27054200000.0
1193.816,27430100000.0
1195.866,27723100000.0
1197.915,27939800000.0
1199.964,28135100000.0
1202.014,28277200000.0
1204.063,28282600000.0
1205.088,28168300000.0
1206.113,27968400000.0
1207.137,27629000000.0
1208.162,27143700000.0
1208.212,27118500000.0
1208.262,27095100000.0
1208.312,27072300000.0
1208.362,27050100000.0
1208.412,27028500000.0
1208.462,27007500000.0
1208.512,26984100000.0
1208.562,26952600000.0
1208.612,26922100000.0
1208.662,26892400000.0
1208.713,26863600000.0
1208.763,26835600000.0
1208.813,26808400000.0
1208.863,26781300000.0
1208.913,26754200000.0
1208.963,26727200000.0
1209.013,26696000000.0
1209.063,26652300000.0
1209.113,26609700000.0
1209.163,26567900000.0
1209.213,26527200000.0
1209.263,26487600000.0
1209.313,26449100000.0
1209.363,26411600000.0
1209.413,26375100000.0
1209.463,26339600000.0
1209.513,26302100000.0
1209.563,26257900000.0
1209.613,26215700000.0
1209.663,26175100000.0
1209.714,26135600000.0
1209.764,26097200000.0
1209.814,26061300000.0
1209.864,26027100000.0
1209.914,25993300000.0
1209.964,25960500000.0
1210.014,25926000000.0
1210.064,25888100000.0
1210.114,25851400000.0
1210.164,25815700000.0
1210.211,25783100000.0
1210.305,25720300000.0
1210.494,25602900000.0
1210.871,25252100000.0
1211.625,24530400000.0
1212.261,23988200000.0
1213.534,23122400000.0
1213.922,22958600000.0
1214.31,22856500000.0
1214.822,22781500000.0
1215.078,22679100000.0
1215.335,22249000000.0
1215.399,22026400000.0
1215.463,21780200000.0
1215.513,21623500000.0
1215.563,21564000000.0
1215.591,21567500000.0
1215.623,21576800000.0
1215.655,21586200000.0
1215.663,21588500000.0
1215.67,21590600000.0
1215.679,21593200000.0
1215.687,21595500000.0
1215.719,21604900000.0
1215.751,21614400000.0
1215.815,21684500000.0
1215.879,21927900000.0
1215.943,22256000000.0
1216.007,22578700000.0
1216.135,23151300000.0
1216.262,23611600000.0
1216.39,24036300000.0
1216.52,24457400000.0
1216.78,25171700000.0
1217.032,25971500000.0
1217.536,27581000000.0
1218.544,30836200000.0
1219.081,32300900000.0
1219.618,33929800000.0
1220.156,35325200000.0
1220.693,36447800000.0
1221.131,37448800000.0
1221.569,38453000000.0
1222.007,38928200000.0
1222.882,40270600000.0
1223.18,40860200000.0
1223.775,41968500000.0
1224.966,43773300000.0
1225.229,44076800000.0
1225.756,44622100000.0
1226.809,45482100000.0
1227.279,45823900000.0
1228.219,46543400000.0
1229.328,47456100000.0
1231.378,49249500000.0
1233.427,51034400000.0
1235.476,52757700000.0
1237.526,54431000000.0
1239.575,56020500000.0
1241.625,57614900000.0
1245.725,60973100000.0
1249.825,64541200000.0
1250.812,65363700000.0
1252.786,67192800000.0
1256.733,70879800000.0
1260.0,74263600000.0
1263.267,78058400000.0
1265.0,80048200000.0
1268.466,83853300000.0
1270.0,85700600000.0
1273.068,89426300000.0
1275.0,91722000000.0
1278.863,96943000000.0
1280.0,98456300000.0
1282.273,101424000000.0
1285.0,104748000000.0
1287.727,108267000000.0
1290.0,111310000000.0
1294.547,117888000000.0
1295.0,118582000000.0
1295.906,119983000000.0
1297.719,122772000000.0
1300.0,126254000000.0
1305.0,133705000000.0
1310.0,141516000000.0
1315.0,149760000000.0
1320.0,158423000000.0
1325.0,167560000000.0
1330.0,177237000000.0
1335.0,187379000000.0
1340.0,197852000000.0
1345.0,208677000000.0
1350.0,220018000000.0
1355.0,232010000000.0
1360.0,244380000000.0
1365.0,257318000000.0
1370.0,270919000000.0
1374.231,282752000000.0
1378.462,294953000000.0
1379.231,297223000000.0
1380.0,299509000000.0
1381.538,304129000000.0
1384.614,313551000000.0
1385.0,314748000000.0
1385.771,317154000000.0
1387.314,322008000000.0
1390.0,330594000000.0
1395.0,347092000000.0
1400.0,364276000000.0
1405.0,382204000000.0
1410.0,400966000000.0
1415.0,420466000000.0
1420.0,440606000000.0
1425.0,461529000000.0
1430.0,483281000000.0
1435.0,505660000000.0
1440.0,528544000000.0
1445.0,552092000000.0
1450.0,576421000000.0
1455.0,601527000000.0
1460.0,627526000000.0
1465.0,654421000000.0
1470.0,682719000000.0
1473.462,703128000000.0
1476.923,724212000000.0
1478.462,733821000000.0
1480.0,743591000000.0
1483.076,763614000000.0
1485.0,776473000000.0
1488.848,802869000000.0
1490.0,810909000000.0
1492.304,827121000000.0
1495.0,846189000000.0
1500.0,881663000000.0
1505.0,917649000000.0
1510.0,955287000000.0
1515.0,995410000000.0
1520.0,1037440000000.0
1525.0,1079130000000.0
1530.0,1118140000000.0
1535.0,1154430000000.0
1540.0,1190380000000.0
1545.0,1228660000000.0
1550.0,1270630000000.0
1555.0,1316160000000.0
1560.0,1363860000000.0
1565.0,1411660000000.0
1570.0,1458050000000.0
1572.692,1482430000000.0
1575.385,1506580000000.0
1577.692,1527350000000.0
1580.0,1548410000000.0
1584.616,1592050000000.0
1585.0,1595830000000.0
1585.768,1603410000000.0
1587.304,1618850000000.0
1590.0,1646910000000.0
1595.0,1702790000000.0
1600.0,1764200000000.0
1605.0,1831700000000.0
1610.0,1905880000000.0
1615.0,1987410000000.0
1620.0,2076770000000.0
1625.0,2174620000000.0
1630.0,2281890000000.0
1635.0,2399810000000.0
1640.0,2529920000000.0
1645.0,2674180000000.0
1650.0,2835130000000.0
1655.0,3014940000000.0
1660.0,3219640000000.0
1665.0,3455250000000.0
1667.5,3584870000000.0
1670.0,3735200000000.0
1671.923,3859540000000.0
1673.846,3996430000000.0
1676.923,4251860000000.0
1678.461,4395230000000.0
1680.0,4564660000000.0
1681.539,4748210000000.0
1683.077,4950590000000.0
1684.616,5186250000000.0
1685.0,5252870000000.0
1685.769,5386690000000.0
1687.306,5655320000000.0
1688.653,5936140000000.0
1690.0,6263840000000.0
1691.347,6612470000000.0
1692.694,7001740000000.0
1693.847,7389240000000.0
1695.0,7831930000000.0
1697.306,8772600000000.0
1698.458,9321290000000.0
1699.611,9959580000000.0
1700.0,10198000000000.0
1700.777,10675000000000.0
1702.332,11632400000000.0
1703.666,12604200000000.0
1705.0,13754900000000.0
1706.334,14954500000000.0
1707.668,16228700000000.0
1708.834,17498800000000.0
1710.0,18937400000000.0
1712.332,21887400000000.0
1713.666,23835300000000.0
1715.0,26055600000000.0
1717.668,30596300000000.0
1718.834,32851100000000.0
1720.0,35373300000000.0
1722.332,40330700000000.0
1723.666,43443900000000.0
1725.0,46887300000000.0
1727.668,53575700000000.0
1728.834,56756000000000.0
1730.0,60220300000000.0
1732.332,66778700000000.0
1734.664,73912000000000.0
1735.0,75019400000000.0
1735.672,77188400000000.0
1737.016,81082200000000.0
1738.359,85242700000000.0
1740.0,90709300000000.0
1743.281,100997000000000.0
1745.0,106765000000000.0
1748.438,117471000000000.0
1750.0,122588000000000.0
1753.125,132035000000000.0
1756.25,141607000000000.0
1761.154,155348000000000.0
1766.058,167950000000000.0
1770.962,179373000000000.0
1772.308,182174000000000.0
1775.0,187930000000000.0
1780.383,198353000000000.0
1785.766,207596000000000.0
1791.15,215864000000000.0
1796.533,223310000000000.0
1801.916,230064000000000.0
1812.683,241947000000000.0
1821.539,250525000000000.0
1839.251,265568000000000.0
1856.964,279009000000000.0
1870.769,288904000000000.0
1884.574,298465000000000.0
1898.38,307847000000000.0
1912.185,317110000000000.0
1920.0,322320000000000.0
1935.63,332644000000000.0
1951.26,342906000000000.0
1966.89,353110000000000.0
1969.231,354633000000000.0
1973.912,357663000000000.0
1983.274,363710000000000.0
2001.999,375739000000000.0
2018.462,386246000000000.0
2034.925,396659000000000.0
2051.388,407041000000000.0
2067.692,417294000000000.0
2083.996,427466000000000.0
2100.299,437596000000000.0
2116.603,447649000000000.0
2116.923,447846000000000.0
2117.563,448238000000000.0
2118.844,449023000000000.0
2121.404,450588000000000.0
2126.525,453698000000000.0
2136.767,459908000000000.0
2147.01,466066000000000.0
2157.252,472183000000000.0
2166.154,477447000000000.0
2183.959,487808000000000.0
2201.763,498003000000000.0
2215.385,505707000000000.0
2229.007,513320000000000.0
2242.628,520878000000000.0
2256.25,528398000000000.0
2264.615,532996000000000.0
2281.345,542102000000000.0
2298.076,551165000000000.0
2313.846,559688000000000.0
2329.616,568143000000000.0
2345.386,576570000000000.0
2361.156,584959000000000.0
2363.077,585978000000000.0
2366.919,588003000000000.0
2374.602,592036000000000.0
2389.969,600020000000000.0
2405.337,607879000000000.0
2412.307,611391000000000.0
2426.247,618287000000000.0
2440.188,625052000000000.0
2454.128,631649000000000.0
2461.538,635114000000000.0
2476.358,641872000000000.0
2491.178,648482000000000.0
2505.998,654954000000000.0
2510.769,657007000000000.0
2520.312,661058000000000.0
2539.398,668988000000000.0
2558.484,676716000000000.0
