Wavelength,Flux
900.0,19337300.0
903.442,21267000.0
904.998,22195600.0
906.554,23161000.0
908.11,24164500.0
909.667,25208200.0
910.703,25925200.0
911.74,26661400.0
911.84,26733500.0
912.0,26849000.0
912.31,27074200.0
912.779,27418200.0
913.717,28118100.0
914.335,28588000.0
915.329,29358900.0
915.824,29749900.0
915.892,29803900.0
916.028,29913000.0
916.3,30130800.0
916.429,30234100.0
916.686,30446500.0
917.181,30846000.0
917.448,31084600.0
917.982,31517300.0
918.129,31633400.0
918.423,31947700.0
919.004,32499700.0
919.351,32675200.0
919.698,33182600.0
920.045,33606200.0
920.56,34105500.0
920.761,34049800.0
920.963,34097500.0
921.165,34432100.0
921.366,34999400.0
921.568,35344400.0
921.769,35627200.0
921.971,35893400.0
922.117,36079700.0
922.41,36423700.0
922.506,36517700.0
922.699,36614700.0
922.797,36554300.0
922.895,36339800.0
922.992,36037900.0
923.089,36059100.0
923.114,36082800.0
923.138,36105500.0
923.144,36111200.0
923.15,36117000.0
923.156,36122600.0
923.162,36128300.0
923.187,36152000.0
923.211,36174700.0
923.261,36223500.0
923.308,36340500.0
923.402,36859000.0
923.405,36876400.0
923.455,37152900.0
923.555,37586000.0
923.755,38131200.0
923.794,38214600.0
923.872,38367900.0
924.028,38642500.0
924.183,38891500.0
924.436,39279700.0
924.688,39651400.0
924.939,40007400.0
925.189,40338100.0
925.579,40686000.0
925.774,40539700.0
925.97,39647600.0
926.067,39073400.0
926.116,39030300.0
926.165,39079300.0
926.189,39103700.0
926.214,39129200.0
926.22,39135300.0
926.226,39141400.0
926.232,39147500.0
926.238,39153600.0
926.263,39179200.0
926.287,39203600.0
926.337,39255800.0
926.385,39399800.0
926.433,39743000.0
926.481,40204900.0
926.532,40686000.0
926.632,41466000.0
926.732,42012900.0
926.832,42409800.0
926.873,42548000.0
926.955,42788300.0
927.119,43178500.0
927.263,43473700.0
927.55,44004700.0
927.875,44560900.0
928.487,45562900.0
929.097,46522900.0
929.706,47327200.0
929.902,47444200.0
930.098,47340700.0
930.196,47105500.0
930.294,46651300.0
930.392,45885800.0
930.49,44807600.0
930.541,44256700.0
930.589,43932700.0
930.637,43881700.0
930.685,43935300.0
930.687,43937600.0
930.711,43964800.0
930.736,43993200.0
930.742,43999900.0
930.748,44006700.0
930.754,44013600.0
930.76,44020300.0
930.785,44048700.0
930.809,44076000.0
930.859,44133600.0
930.907,44294700.0
930.955,44736300.0
931.003,45384800.0
931.005,45413200.0
931.055,46131500.0
931.155,47422400.0
931.255,48396800.0
931.355,49094500.0
931.398,49333400.0
931.484,49747800.0
931.657,50370600.0
931.79,50749600.0
932.057,51381900.0
932.591,52445700.0
933.033,53264900.0
933.918,54855000.0
934.276,55498700.0
934.992,56778500.0
935.514,57695300.0
936.558,59210800.0
936.753,59298800.0
936.948,59166100.0
937.143,58577900.0
937.148,58551600.0
937.198,58257200.0
937.298,57428800.0
937.398,56207000.0
937.498,54585200.0
937.544,53799400.0
937.636,52637900.0
937.642,52610700.0
937.692,52553800.0
937.741,52618600.0
937.766,52652000.0
937.791,52685300.0
937.797,52693400.0
937.803,52701300.0
937.809,52709400.0
937.815,52717400.0
937.84,52750900.0
937.865,52784200.0
937.915,52851700.0
937.964,53042200.0
938.013,53625800.0
938.062,54518600.0
938.16,56507500.0
938.258,58286300.0
938.356,59676000.0
938.458,60767700.0
938.56,61582900.0
938.764,62741800.0
938.853,63129000.0
939.031,63774600.0
939.388,64806400.0
940.102,66460400.0
940.434,67171000.0
941.097,68565600.0
942.015,70483000.0
942.894,72332100.0
943.773,74206100.0
944.625,76047700.0
945.478,77906800.0
947.079,81369200.0
947.88,82823900.0
948.68,82952300.0
948.88,82164800.0
949.08,80481700.0
949.18,79138700.0
949.28,77292900.0
949.38,74975300.0
949.48,72512200.0
949.53,71472500.0
949.58,70875300.0
949.63,70828800.0
949.68,70915600.0
949.705,70959300.0
949.73,71003000.0
949.737,71015300.0
949.743,71025800.0
949.749,71036300.0
949.755,71046800.0
949.781,71092400.0
949.806,71136200.0
949.856,71224400.0
949.906,71447400.0
949.956,72225400.0
950.006,73455800.0
950.056,74874900.0
950.156,77774400.0
950.256,80318800.0
950.356,82390800.0
950.406,83242700.0
950.506,84723900.0
950.707,86924000.0
950.806,87729000.0
951.005,89027100.0
951.402,90933000.0
951.8,92398900.0
952.407,94279200.0
953.622,97649600.0
954.008,98698600.0
954.781,100804000.0
955.609,103085000.0
957.211,107602000.0
958.812,112254000.0
960.413,117060000.0
960.776,118177000.0
961.14,119306000.0
961.376,120044000.0
961.611,120783000.0
962.081,122274000.0
963.021,125309000.0
963.251,126060000.0
963.71,127571000.0
964.629,130629000.0
964.89,131510000.0
965.412,133288000.0
966.456,136916000.0
966.53,137177000.0
966.678,137700000.0
966.975,138753000.0
967.567,140882000.0
968.169,143074000.0
969.372,147541000.0
969.809,149193000.0
970.683,152527000.0
971.448,155464000.0
971.858,156953000.0
972.268,158357000.0
972.37,158696000.0
972.473,159037000.0
972.499,159123000.0
972.524,159206000.0
972.531,159229000.0
972.537,159249000.0
972.543,159269000.0
972.55,159293000.0
972.575,159376000.0
972.601,159462000.0
972.653,159634000.0
972.703,159818000.0
972.803,160189000.0
972.806,160201000.0
972.856,160387000.0
972.956,160761000.0
973.156,161508000.0
973.216,161733000.0
973.336,162192000.0
973.576,163230000.0
973.626,163447000.0
973.726,163883000.0
973.926,164759000.0
974.326,166567000.0
975.126,170237000.0
975.265,170880000.0
975.544,172150000.0
976.101,174683000.0
976.905,178339000.0
978.512,185816000.0
978.544,185966000.0
978.608,186267000.0
978.735,186868000.0
978.989,188075000.0
979.498,190513000.0
980.184,193851000.0
981.556,200660000.0
981.823,202006000.0
982.357,204723000.0
983.424,210266000.0
983.463,210468000.0
983.54,210873000.0
983.694,211685000.0
984.003,213319000.0
984.62,216625000.0
985.102,219238000.0
986.065,224543000.0
986.742,228318000.0
988.095,236057000.0
988.381,237724000.0
988.953,241092000.0
990.021,247513000.0
991.66,257682000.0
993.3,268284000.0
996.58,290702000.0
996.65,291193000.0
996.79,292182000.0
997.07,294167000.0
997.63,298180000.0
998.75,306365000.0
1000.0,315759000.0
1001.912,330652000.0
1003.824,346214000.0
1005.553,360903000.0
1007.282,376195000.0
1009.011,391789000.0
1010.74,407954000.0
1012.469,424703000.0
1014.199,441997000.0
1015.928,459692000.0
1017.657,477462000.0
1019.386,494265000.0
1021.115,507542000.0
1021.979,510228000.0
1022.844,506731000.0
1023.276,501811000.0
1023.708,494227000.0
1024.141,483651000.0
1024.573,471469000.0
1024.624,469837000.0
1024.674,468237000.0
1024.724,466596000.0
1024.774,464865000.0
1024.824,463019000.0
1024.874,461048000.0
1024.924,458833000.0
1024.974,456428000.0
1025.006,454827000.0
1025.069,451421000.0
1025.196,442435000.0
1025.317,429887000.0
1025.438,413508000.0
1025.546,399434000.0
1025.6,396137000.0
1025.654,395821000.0
1025.681,396039000.0
1025.708,396261000.0
1025.715,396318000.0
1025.72,396359000.0
1025.722,396376000.0
1025.729,396434000.0
1025.736,396491000.0
1025.763,396713000.0
1025.79,396936000.0
1025.844,397693000.0
1025.898,400876000.0
1025.952,407354000.0
1026.005,415784000.0
1026.056,424059000.0
1026.106,431973000.0
1026.156,439136000.0
1026.206,445681000.0
1026.256,451550000.0
1026.306,456625000.0
1026.356,461181000.0
1026.406,465331000.0
1026.438,467705000.0
1026.501,472059000.0
1026.628,480195000.0
1026.87,493295000.0
1027.112,505290000.0
1027.597,529189000.0
1028.082,550285000.0
1028.566,569227000.0
1028.6,570385000.0
1028.668,572697000.0
1028.803,577297000.0
1029.073,586186000.0
1029.614,601700000.0
1030.329,619440000.0
1031.758,650153000.0
1032.058,655997000.0
1032.658,667131000.0
1033.787,687474000.0
1035.516,717072000.0
1037.246,747780000.0
1038.975,778481000.0
1040.704,809388000.0
1042.433,841144000.0
1044.162,873759000.0
1045.892,907583000.0
1047.621,942567000.0
1048.81,967073000.0
1050.0,992206000.0
1052.38,1044250000.0
1055.0,1104170000.0
1057.62,1166840000.0
1060.0,1226820000.0
1064.76,1354780000.0
1065.0,1361540000.0
1065.48,1375150000.0
1066.441,1402770000.0
1068.363,1459160000.0
1070.0,1508460000.0
1073.273,1611710000.0
1075.0,1668670000.0
1078.453,1787360000.0
1080.0,1843330000.0
1081.538,1900610000.0
1083.077,1959200000.0
1086.155,2080400000.0
1086.538,2095950000.0
1087.304,2127400000.0
1088.835,2191500000.0
1090.0,2241450000.0
1092.33,2343630000.0
1095.0,2465710000.0
1097.67,2593720000.0
1100.0,2709830000.0
1104.661,2954420000.0
1105.0,2973030000.0
1105.679,3010510000.0
1107.036,3086840000.0
1109.751,3243360000.0
1110.0,3257950000.0
1110.498,3287300000.0
1111.494,3346630000.0
1113.486,3467940000.0
1115.0,3562740000.0
1118.027,3758420000.0
1120.0,3887770000.0
1123.945,4145120000.0
1125.0,4215480000.0
1127.109,4356190000.0
1130.0,4547770000.0
1131.154,4622870000.0
1132.308,4695890000.0
1134.616,4839280000.0
1136.154,4930400000.0
1139.23,5102660000.0
1140.0,5141190000.0
1141.539,5217630000.0
1144.617,5361530000.0
1145.0,5379890000.0
1145.766,5411330000.0
1147.297,5479190000.0
1150.0,5596830000.0
1152.703,5715430000.0
1155.406,5830490000.0
1158.109,5942090000.0
1160.812,6059570000.0
1163.516,6179700000.0
1165.769,6291980000.0
1170.276,6560190000.0
1174.783,6886120000.0
1179.29,7264400000.0
1181.538,7472860000.0
1185.628,7888630000.0
1189.718,8339220000.0
1191.767,8568730000.0
1193.816,8795850000.0
1195.866,9017970000.0
1197.915,9236630000.0
1199.964,9454480000.0
1202.014,9667930000.0
1204.063,9868620000.0
1206.113,10033000000.0
1208.162,10131300000.0
1210.211,10148500000.0
1210.261,10148600000.0
1210.311,10148800000.0
1210.361,10149200000.0
1210.411,10150000000.0
1210.461,10150900000.0
1210.511,10151300000.0
1210.561,10149400000.0
1210.611,10147700000.0
1210.661,10146200000.0
1210.712,10144800000.0
1210.762,10143600000.0
1210.812,10142500000.0
1210.862,10141600000.0
1210.912,10140900000.0
1210.962,10140300000.0
1211.012,10139200000.0
1211.062,10136300000.0
1211.112,10133800000.0
1211.162,10131500000.0
1211.212,10129600000.0
1211.262,10128000000.0
1211.312,10126700000.0
1211.362,10125700000.0
1211.412,10124900000.0
1211.462,10124200000.0
1211.512,10123700000.0
1211.562,10123100000.0
1211.612,10122600000.0
1211.662,10122400000.0
1211.713,10122300000.0
1211.763,10122700000.0
1211.813,10123300000.0
1211.863,10124000000.0
1211.913,10124900000.0
1211.963,10125900000.0
1212.013,10126100000.0
1212.063,10124100000.0
1212.113,10122500000.0
1212.163,10121100000.0
1212.213,10120000000.0
1212.261,10119700000.0
1212.357,10119600000.0
1212.549,10121200000.0
1212.933,10128400000.0
1213.7,10171000000.0
1214.31,10223800000.0
1214.822,10281900000.0
1215.335,10331000000.0
1215.463,10318800000.0
1215.591,10315300000.0
1215.623,10320000000.0
1215.655,10324600000.0
1215.663,10325800000.0
1215.67,10326800000.0
1215.679,10328100000.0
1215.687,10329300000.0
1215.719,10334000000.0
1215.751,10338700000.0
1215.815,10353900000.0
1215.879,10385400000.0
1216.007,10451100000.0
1216.263,10557400000.0
1216.52,10666300000.0
1217.032,10898400000.0
1218.056,11438900000.0
1219.08,11958000000.0
1219.081,11958600000.0
1219.131,11981900000.0
1219.181,12005800000.0
1219.231,12029800000.0
1219.281,12053900000.0
1219.331,12078700000.0
1219.381,12104000000.0
1219.431,12130700000.0
1219.481,12158300000.0
1219.531,12181900000.0
1219.582,12203000000.0
1219.632,12224300000.0
1219.682,12245800000.0
1219.732,12267400000.0
1219.782,12289600000.0
1219.832,12312400000.0
1219.882,12335600000.0
1219.932,12359300000.0
1219.982,12383300000.0
1220.032,12402700000.0
1220.082,12419300000.0
1220.132,12436200000.0
1220.182,12453100000.0
1220.232,12470300000.0
1220.282,12487600000.0
1220.332,12505200000.0
1220.382,12523100000.0
1220.432,12541100000.0
1220.482,12559300000.0
1220.532,12577200000.0
1220.583,12595000000.0
1220.633,12613000000.0
1220.683,12631000000.0
1220.733,12649300000.0
1220.783,12667500000.0
1220.833,12685900000.0
1220.883,12704600000.0
1220.933,12723400000.0
1220.983,12742500000.0
1221.033,12761000000.0
1221.083,12779200000.0
1221.131,12796800000.0
1221.227,12832300000.0
1221.419,12906200000.0
1221.803,13008600000.0
1222.57,13198100000.0
1223.18,13393500000.0
1224.4,13753200000.0
1225.229,13969800000.0
1226.887,14339600000.0
1227.279,14421800000.0
1228.062,14589700000.0
1229.328,14873200000.0
1231.378,15350300000.0
1233.427,15834300000.0
1235.476,16320400000.0
1237.526,16809600000.0
1239.575,17297500000.0
1241.625,17794300000.0
1245.725,18832800000.0
1249.825,19929900000.0
1250.812,20194500000.0
1252.786,20752500000.0
1256.733,21896700000.0
1260.0,22912700000.0
1263.267,24010800000.0
1265.0,24601600000.0
1268.466,25777900000.0
1270.0,26331400000.0
1273.068,27461000000.0
1275.0,28176600000.0
1278.863,29739100000.0
1280.0,30202800000.0
1282.273,31129800000.0
1285.0,32214600000.0
1287.727,33350500000.0
1290.0,34330100000.0
1294.547,36418500000.0
1295.0,36637000000.0
1295.906,37078200000.0
1297.719,37964100000.0
1300.0,39084300000.0
1305.0,41544000000.0
1310.0,44133600000.0
1315.0,46871900000.0
1320.0,49759100000.0
1325.0,52809700000.0
1330.0,56042000000.0
1335.0,59442400000.0
1340.0,62984100000.0
1345.0,66674000000.0
1350.0,70551900000.0
1355.0,74653800000.0
1360.0,78918700000.0
1365.0,83393200000.0
1370.0,88104300000.0
1374.231,92231400000.0
1378.462,96506700000.0
1379.231,97303000000.0
1380.0,98105000000.0
1381.538,99727100000.0
1384.614,103041000000.0
1385.0,103462000000.0
1385.771,104310000000.0
1387.314,106022000000.0
1390.0,109056000000.0
1395.0,114902000000.0
1400.0,121011000000.0
1405.0,127401000000.0
1410.0,134101000000.0
1415.0,141091000000.0
1420.0,148350000000.0
1425.0,155918000000.0
1430.0,163810000000.0
1435.0,171977000000.0
1440.0,180393000000.0
1445.0,189102000000.0
1450.0,198140000000.0
1455.0,207509000000.0
1460.0,217244000000.0
1465.0,227352000000.0
1470.0,237971000000.0
1473.462,245625000000.0
1476.923,253529000000.0
1478.462,257128000000.0
1480.0,260785000000.0
1483.076,268271000000.0
1485.0,273073000000.0
1488.848,282929000000.0
1490.0,285935000000.0
1492.304,292009000000.0
1495.0,299188000000.0
1500.0,312664000000.0
1505.0,326452000000.0
1510.0,340863000000.0
1515.0,356128000000.0
1520.0,372100000000.0
1525.0,388177000000.0
1530.0,403731000000.0
1535.0,418741000000.0
1540.0,433855000000.0
1545.0,449796000000.0
1550.0,466963000000.0
1555.0,485335000000.0
1560.0,504533000000.0
1565.0,523988000000.0
1570.0,543273000000.0
1572.692,553578000000.0
1575.385,563881000000.0
1577.692,572783000000.0
1580.0,581812000000.0
1584.616,600454000000.0
1585.0,602057000000.0
1585.768,605274000000.0
1587.304,611806000000.0
1590.0,623605000000.0
1595.0,646791000000.0
1600.0,671844000000.0
1605.0,698954000000.0
1610.0,728295000000.0
1615.0,760026000000.0
1620.0,794288000000.0
1625.0,831237000000.0
1630.0,870978000000.0
1635.0,913527000000.0
1640.0,958878000000.0
1645.0,1006990000000.0
1650.0,1057780000000.0
1655.0,1111050000000.0
1660.0,1167330000000.0
1665.0,1226750000000.0
1670.0,1290040000000.0
1671.923,1315200000000.0
1673.846,1341260000000.0
1676.923,1385500000000.0
1680.0,1432960000000.0
1685.0,1519440000000.0
1687.5,1567380000000.0
1690.0,1622350000000.0
1692.5,1683250000000.0
1695.0,1753320000000.0
1697.5,1828330000000.0
1700.0,1921530000000.0
1702.5,2022970000000.0
1705.0,2150290000000.0
1707.5,2286320000000.0
1710.0,2451120000000.0
1712.5,2636100000000.0
1715.0,2857740000000.0
1717.5,3106500000000.0
1720.0,3397160000000.0
1722.5,3704980000000.0
1725.0,4079560000000.0
1727.5,4473770000000.0
1730.0,4934500000000.0
1732.5,5424240000000.0
1735.0,5983420000000.0
1737.5,6555070000000.0
1740.0,7203120000000.0
1742.5,7876680000000.0
1745.0,8628750000000.0
1750.0,10220000000000.0
1752.5,11065200000000.0
1755.0,11988700000000.0
1760.0,13838000000000.0
1761.154,14272100000000.0
1763.462,15130600000000.0
1768.078,16926300000000.0
1772.308,18602000000000.0
1780.767,21952600000000.0
1789.226,25177800000000.0
1797.686,28327700000000.0
1814.604,34332900000000.0
1821.539,36699100000000.0
1835.409,41340300000000.0
1849.278,45928500000000.0
1863.148,50556600000000.0
1870.769,53139700000000.0
1886.011,58397800000000.0
1901.254,63799400000000.0
1916.496,69354300000000.0
1920.0,70654800000000.0
1927.007,73280800000000.0
1941.022,78644400000000.0
1955.037,84127400000000.0
1969.051,89720900000000.0
1969.231,89793600000000.0
1969.731,89995800000000.0
1970.731,90400400000000.0
1972.731,91206700000000.0
1976.731,92831300000000.0
1984.731,96104300000000.0
2000.731,102715000000000.0
2016.731,109366000000000.0
2018.462,110105000000000.0
2021.924,111572000000000.0
2028.849,114485000000000.0
2042.697,120463000000000.0
2056.546,126557000000000.0
2067.692,131578000000000.0
2078.838,136712000000000.0
2089.984,141909000000000.0
2101.13,147224000000000.0
2112.276,152516000000000.0
2116.923,154761000000000.0
2126.218,159185000000000.0
2144.806,167988000000000.0
2163.395,176555000000000.0
2166.154,177762000000000.0
2171.672,180185000000000.0
2182.707,185002000000000.0
2193.742,189567000000000.0
2204.777,194093000000000.0
2215.385,198352000000000.0
2225.993,202624000000000.0
2236.601,206918000000000.0
2247.209,211299000000000.0
2257.817,215746000000000.0
2264.615,218669000000000.0
2278.212,224619000000000.0
2291.808,230868000000000.0
2305.405,237393000000000.0
2313.846,241662000000000.0
2330.728,250702000000000.0
2347.61,260441000000000.0
2363.077,269914000000000.0
2378.544,279789000000000.0
2394.011,289729000000000.0
2409.479,299536000000000.0
2412.307,301306000000000.0
2417.963,304857000000000.0
2429.276,311575000000000.0
2440.588,318223000000000.0
2451.901,324303000000000.0
2461.538,329457000000000.0
2480.813,338916000000000.0
2500.088,347609000000000.0
2510.769,352099000000000.0
2521.45,356533000000000.0
2532.131,360735000000000.0
2542.812,364884000000000.0
2553.494,368882000000000.0
2560.0,371309000000000.0
2573.013,375985000000000.0
2586.025,380582000000000.0
2599.038,385087000000000.0
2612.051,389495000000000.0
2625.063,393842000000000.0
2638.076,398119000000000.0
2651.089,402329000000000.0
2658.461,404694000000000.0
2673.205,409335000000000.0
2687.949,413979000000000.0
2702.693,418600000000000.0
2717.438,423053000000000.0
2732.182,427405000000000.0
2746.926,431701000000000.0
2756.923,434583000000000.0
2776.918,440239000000000.0
2796.912,445790000000000.0
2816.907,451235000000000.0
2836.902,456575000000000.0
2855.385,461415000000000.0
2873.868,466136000000000.0
2892.352,470761000000000.0
2910.835,475292000000000.0
2929.319,479727000000000.0
2945.1,483438000000000.0
2953.846,485464000000000.0
2971.338,489425000000000.0
2988.829,493298000000000.0
3006.321,497086000000000.0
3023.813,500784000000000.0
3041.304,504396000000000.0
3052.308,506625000000000.0
3063.312,508809000000000.0
3074.315,510959000000000.0
3085.319,513076000000000.0
3096.323,515157000000000.0
3107.326,517206000000000.0
3118.33,519220000000000.0
3129.334,521200000000000.0
3140.337,523146000000000.0
3150.769,524961000000000.0
3161.201,526744000000000.0
3171.632,528498000000000.0
3182.064,530222000000000.0
3187.7,531141000000000.0
3198.972,532952000000000.0
3210.244,534728000000000.0
3221.516,536470000000000.0
3232.788,538177000000000.0
3244.06,539850000000000.0
3249.231,540606000000000.0
3259.573,542097000000000.0
3269.916,543559000000000.0
3280.258,544994000000000.0
3290.6,546399000000000.0
3300.942,547777000000000.0
3311.285,549126000000000.0
3321.627,550447000000000.0
3331.969,551740000000000.0
3342.312,553006000000000.0
3347.692,553654000000000.0
3358.453,554927000000000.0
3369.213,556171000000000.0
3379.974,557386000000000.0
3390.735,558570000000000.0
3401.496,559727000000000.0
3412.256,560852000000000.0
3423.017,561950000000000.0
3433.778,563018000000000.0
3444.539,564058000000000.0
3446.154,564212000000000.0
3449.385,564516000000000.0
3455.847,565118000000000.0
3468.771,566291000000000.0
3481.695,567425000000000.0
3494.618,568518000000000.0
3507.542,569571000000000.0
3520.466,570585000000000.0
3533.39,571559000000000.0
3544.615,572374000000000.0
3555.84,573156000000000.0
3567.065,573910000000000.0
3578.29,574635000000000.0
3589.515,575332000000000.0
3595.868,575714000000000.0
3608.573,576447000000000.0
3621.278,577145000000000.0
3633.983,577809000000000.0
3646.5,578428000000000.0
3647.0,578453000000000.0
3647.12,578458000000000.0
3647.22,578008000000000.0
3647.42,578019000000000.0
