Wavelength,Flux
900.0,6390800.0
903.442,7058240.0
904.998,7380420.0
906.554,7716010.0
908.11,8065490.0
909.667,8429680.0
910.703,8680240.0
911.74,8937880.0
911.84,8963100.0
912.0,9003560.0
912.31,9082450.0
912.779,9203000.0
913.717,9448490.0
914.335,9613510.0
915.329,9884430.0
915.824,10021900.0
915.892,10041000.0
916.028,10079800.0
916.3,10156100.0
916.429,10192400.0
916.686,10270200.0
917.181,10407900.0
917.448,10502200.0
917.982,10648600.0
918.129,10685600.0
918.423,10825100.0
918.717,10947200.0
919.004,11040300.0
919.351,11053500.0
919.525,11146500.0
919.698,11303700.0
919.871,11402600.0
920.045,11484800.0
920.218,11561200.0
920.56,11670900.0
920.761,11592000.0
920.963,11556500.0
921.064,11588700.0
921.165,11733700.0
921.265,11906300.0
921.366,12023600.0
921.467,12106300.0
921.568,12176600.0
921.668,12238900.0
921.769,12297700.0
921.87,12353400.0
921.971,12406900.0
922.071,12458400.0
922.117,12481200.0
922.208,12525400.0
922.39,12607000.0
922.506,12648500.0
922.738,12657400.0
922.816,12598900.0
922.895,12483600.0
922.992,12273800.0
923.041,12236000.0
923.089,12251800.0
923.114,12260300.0
923.138,12268300.0
923.144,12270300.0
923.15,12272300.0
923.156,12274400.0
923.162,12276400.0
923.187,12284800.0
923.211,12292900.0
923.261,12310300.0
923.308,12382000.0
923.355,12522700.0
923.402,12676500.0
923.405,12686100.0
923.455,12825100.0
923.555,13038100.0
923.655,13185500.0
923.755,13293000.0
923.794,13329700.0
923.872,13396300.0
924.028,13512300.0
924.183,13616400.0
924.436,13775000.0
924.688,13926800.0
924.939,14072400.0
925.189,14204300.0
925.579,14319100.0
925.676,14292400.0
925.774,14212900.0
925.871,14037500.0
925.969,13719900.0
925.97,13716000.0
926.02,13519400.0
926.067,13362400.0
926.114,13307800.0
926.161,13324300.0
926.165,13325700.0
926.189,13334400.0
926.214,13343500.0
926.22,13345600.0
926.226,13347800.0
926.232,13350000.0
926.238,13352200.0
926.263,13361300.0
926.287,13370000.0
926.337,13388600.0
926.385,13479500.0
926.435,13691200.0
926.482,13926200.0
926.576,14353600.0
926.67,14661900.0
926.764,14884200.0
926.873,15067400.0
927.091,15326600.0
927.263,15483200.0
927.607,15754500.0
927.875,15945900.0
928.411,16312100.0
928.487,16363100.0
928.639,16464200.0
928.943,16662700.0
929.097,16759200.0
929.405,16937700.0
929.706,17069400.0
929.902,17096000.0
930.098,17001000.0
930.196,16857200.0
930.294,16602300.0
930.392,16189100.0
930.49,15624500.0
930.541,15319000.0
930.589,15104400.0
930.637,15040900.0
930.685,15060000.0
930.687,15060900.0
930.711,15070600.0
930.736,15080700.0
930.742,15083200.0
930.748,15085600.0
930.754,15088100.0
930.76,15090500.0
930.785,15100600.0
930.809,15110400.0
930.859,15131000.0
930.907,15234600.0
930.957,15506600.0
931.005,15846000.0
931.101,16521900.0
931.197,17074600.0
931.293,17485500.0
931.398,17807900.0
931.503,18047800.0
931.712,18382400.0
931.79,18477700.0
931.945,18652700.0
932.255,18955000.0
932.876,19473400.0
933.033,19599500.0
933.347,19849500.0
933.975,20341900.0
934.276,20575200.0
934.878,21032500.0
935.514,21502600.0
936.133,21911300.0
936.753,22075400.0
936.951,21920200.0
937.148,21501600.0
937.247,21131400.0
937.346,20572100.0
937.444,19814200.0
937.543,18935700.0
937.594,18517100.0
937.642,18240600.0
937.692,18159000.0
937.741,18182400.0
937.766,18194400.0
937.791,18206500.0
937.797,18209300.0
937.803,18212200.0
937.809,18215200.0
937.815,18218000.0
937.84,18230100.0
937.865,18242200.0
937.915,18266600.0
937.964,18397100.0
938.014,18740600.0
938.062,19190800.0
938.112,19703500.0
938.212,20686100.0
938.312,21508700.0
938.412,22133900.0
938.458,22371200.0
938.55,22768900.0
938.734,23360400.0
938.853,23632100.0
939.09,24044400.0
939.327,24365900.0
939.801,24890100.0
940.434,25489300.0
941.7,26598200.0
942.015,26870400.0
942.646,27410300.0
942.894,27624000.0
943.39,28054000.0
943.773,28389000.0
944.539,29072500.0
944.625,29149300.0
944.797,29303200.0
945.14,29611000.0
945.478,29908700.0
946.154,30498800.0
947.079,31277100.0
947.479,31571400.0
947.88,31783600.0
948.28,31801200.0
948.68,31385800.0
948.88,30856100.0
949.08,29859300.0
949.18,29135300.0
949.28,28177600.0
949.38,27023800.0
949.48,25802700.0
949.53,25263800.0
949.58,24903700.0
949.605,24801000.0
949.63,24802600.0
949.68,24834400.0
949.705,24850500.0
949.73,24866400.0
949.737,24870900.0
949.743,24874700.0
949.749,24878700.0
949.755,24882500.0
949.781,24899100.0
949.806,24915200.0
949.856,24947400.0
949.906,25114100.0
949.956,25542200.0
950.006,26153900.0
950.056,26837400.0
950.156,28211200.0
950.256,29446700.0
950.356,30461700.0
950.406,30901100.0
950.506,31657200.0
950.606,32294200.0
950.707,32812300.0
950.806,33235400.0
951.005,33933800.0
951.203,34504300.0
951.402,34961100.0
951.8,35675400.0
952.197,36284500.0
952.407,36570600.0
952.827,37097000.0
953.666,38107800.0
954.008,38503900.0
954.692,39304200.0
955.609,40381600.0
957.211,42322200.0
958.812,44366000.0
960.413,46454300.0
960.776,46942000.0
961.14,47436000.0
961.376,47759700.0
961.611,48083900.0
962.081,48738900.0
963.021,50075500.0
963.251,50408700.0
963.71,51084900.0
964.629,52463100.0
964.89,52854300.0
965.412,53628400.0
966.456,55212000.0
966.53,55326300.0
966.678,55555100.0
966.975,56016500.0
967.567,56950400.0
968.169,57915400.0
969.372,59897400.0
969.809,60632500.0
970.683,62127400.0
971.448,63430900.0
971.858,64011800.0
972.268,64475800.0
972.37,64586300.0
972.473,64698000.0
972.499,64725600.0
972.524,64752000.0
972.531,64759200.0
972.537,64765600.0
972.543,64771800.0
972.55,64779400.0
972.575,64805700.0
972.601,64833100.0
972.653,64887600.0
972.703,64956500.0
972.803,65099500.0
972.806,65103800.0
972.856,65175400.0
972.956,65318600.0
973.156,65604900.0
973.216,65690800.0
973.336,65871100.0
973.576,66345100.0
973.626,66444300.0
973.726,66643700.0
973.926,67044300.0
974.326,67891000.0
975.126,69591800.0
975.265,69890700.0
975.544,70474400.0
976.101,71673000.0
976.905,73363100.0
978.512,76836400.0
978.544,76905600.0
978.608,77044100.0
978.735,77321000.0
978.989,77876000.0
979.498,78991000.0
980.184,80471300.0
981.556,83500500.0
981.823,84099000.0
982.357,85306200.0
983.424,87749400.0
983.463,87838800.0
983.54,88019000.0
983.694,88379900.0
984.003,89107300.0
984.62,90581000.0
985.102,91749000.0
986.065,94096800.0
986.742,95788600.0
988.095,99275200.0
988.381,100017000.0
988.953,101516000.0
990.021,104391000.0
991.66,108959000.0
993.3,113696000.0
996.58,123764000.0
996.65,123989000.0
996.79,124438000.0
997.07,125344000.0
997.63,127185000.0
998.75,130889000.0
1000.0,135127000.0
1001.912,141896000.0
1003.824,148865000.0
1005.553,155517000.0
1007.282,162288000.0
1009.011,169385000.0
1010.74,176657000.0
1012.469,184140000.0
1014.199,191558000.0
1015.928,198909000.0
1017.657,206210000.0
1019.386,211991000.0
1020.25,213773000.0
1021.115,214647000.0
1021.979,213633000.0
1022.844,209401000.0
1023.276,206072000.0
1023.708,201956000.0
1024.141,196891000.0
1024.573,190322000.0
1024.624,189450000.0
1024.674,188547000.0
1024.724,187643000.0
1024.774,186712000.0
1024.824,185688000.0
1024.874,184606000.0
1024.924,183427000.0
1024.974,182124000.0
1025.006,181231000.0
1025.069,179410000.0
1025.196,174803000.0
1025.259,171724000.0
1025.322,168044000.0
1025.438,159982000.0
1025.546,152461000.0
1025.6,150265000.0
1025.654,149823000.0
1025.681,149905000.0
1025.708,149993000.0
1025.715,150016000.0
1025.72,150032000.0
1025.722,150039000.0
1025.729,150061000.0
1025.736,150084000.0
1025.763,150172000.0
1025.79,150260000.0
1025.844,150724000.0
1025.871,151499000.0
1025.898,152740000.0
1025.952,156333000.0
1026.005,160679000.0
1026.056,164820000.0
1026.106,168733000.0
1026.156,172366000.0
1026.206,175613000.0
1026.256,178514000.0
1026.306,180996000.0
1026.356,183292000.0
1026.406,185285000.0
1026.438,186510000.0
1026.501,188772000.0
1026.628,192843000.0
1026.87,199432000.0
1027.112,205384000.0
1027.597,216497000.0
1028.082,226099000.0
1028.566,235162000.0
1028.6,235727000.0
1028.668,236858000.0
1028.803,239132000.0
1029.073,243694000.0
1029.614,251778000.0
1030.329,261183000.0
1031.758,278195000.0
1032.058,281469000.0
1032.658,287444000.0
1033.787,297658000.0
1035.516,311611000.0
1037.245,326759000.0
1037.296,327209000.0
1037.346,327652000.0
1037.396,328093000.0
1037.446,328539000.0
1037.496,328988000.0
1037.546,329419000.0
1037.596,329849000.0
1037.646,330279000.0
1037.696,330713000.0
1037.746,331145000.0
1037.797,331580000.0
1037.847,332012000.0
1037.897,332453000.0
1037.947,332890000.0
1037.997,333327000.0
1038.047,333751000.0
1038.097,334170000.0
1038.147,334592000.0
1038.197,335016000.0
1038.247,335437000.0
1038.297,335862000.0
1038.347,336286000.0
1038.397,336712000.0
1038.447,337138000.0
1038.497,337566000.0
1038.547,337991000.0
1038.597,338411000.0
1038.647,338836000.0
1038.697,339259000.0
1038.747,339686000.0
1038.797,340110000.0
1038.848,340537000.0
1038.898,340963000.0
1038.948,341392000.0
1038.975,341625000.0
1039.03,342087000.0
1039.139,342993000.0
1039.358,344820000.0
1039.795,348457000.0
1040.67,355786000.0
1040.704,356071000.0
1040.771,356646000.0
1040.906,357798000.0
1041.176,360106000.0
1041.715,364749000.0
1042.433,370995000.0
1043.87,383671000.0
1044.162,386247000.0
1044.747,391411000.0
1045.892,401579000.0
1047.621,417492000.0
1048.81,428943000.0
1050.0,440579000.0
1052.38,464137000.0
1055.0,491916000.0
1057.62,520806000.0
1060.0,548371000.0
1064.76,608671000.0
1065.0,611822000.0
1065.48,618177000.0
1066.441,631148000.0
1068.363,658161000.0
1070.0,681896000.0
1073.273,730465000.0
1075.0,757759000.0
1078.453,815825000.0
1080.0,842746000.0
1081.538,870708000.0
1083.077,899926000.0
1086.155,960675000.0
1086.538,968245000.0
1087.304,983608000.0
1088.835,1015230000.0
1090.0,1040200000.0
1092.33,1092860000.0
1095.0,1154910000.0
1097.67,1219150000.0
1100.0,1278820000.0
1104.661,1403470000.0
1105.0,1412630000.0
1105.679,1430960000.0
1107.036,1468740000.0
1109.751,1547600000.0
1110.0,1555120000.0
1110.498,1570220000.0
1111.494,1600690000.0
1113.486,1658990000.0
1115.0,1702510000.0
1118.027,1791830000.0
1120.0,1849150000.0
1123.945,1953400000.0
1125.0,1977960000.0
1127.109,2022640000.0
1130.0,2076740000.0
1131.154,2098050000.0
1132.308,2116930000.0
1134.616,2154660000.0
1136.154,2179370000.0
1139.23,2233220000.0
1140.0,2246380000.0
1141.539,2276130000.0
1144.617,2340860000.0
1145.0,2349810000.0
1145.766,2365950000.0
1147.297,2401650000.0
1150.0,2466760000.0
1152.703,2534550000.0
1155.406,2604700000.0
1158.109,2675030000.0
1160.812,2745350000.0
1163.516,2813440000.0
1165.769,2872580000.0
1170.276,3001140000.0
1174.783,3147850000.0
1179.29,3318940000.0
1181.538,3413340000.0
1185.628,3604070000.0
1189.718,3813670000.0
1191.767,3919580000.0
1193.816,4024110000.0
1195.866,4125380000.0
1197.915,4225060000.0
1199.964,4322680000.0
1202.014,4417940000.0
1204.063,4503390000.0
1206.113,4568580000.0
1208.162,4595160000.0
1209.187,4591040000.0
1210.211,4572700000.0
1210.261,4572080000.0
1210.311,4571540000.0
1210.361,4571060000.0
1210.411,4570650000.0
1210.461,4570300000.0
1210.511,4569600000.0
1210.561,4567710000.0
1210.611,4565800000.0
1210.661,4564000000.0
1210.712,4562360000.0
1210.762,4560830000.0
1210.812,4559660000.0
1210.862,4558570000.0
1210.912,4557560000.0
1210.962,4556640000.0
1211.012,4555390000.0
1211.062,4552910000.0
1211.112,4550440000.0
1211.162,4548090000.0
1211.212,4545880000.0
1211.262,4543820000.0
1211.312,4541930000.0
1211.362,4540370000.0
1211.412,4539060000.0
1211.462,4537870000.0
1211.512,4536760000.0
1211.562,4535580000.0
1211.612,4534500000.0
1211.662,4533610000.0
1211.713,4532950000.0
1211.763,4532300000.0
1211.813,4531750000.0
1211.863,4531270000.0
1211.913,4530880000.0
1211.963,4530570000.0
1212.013,4529820000.0
1212.063,4527700000.0
1212.113,4525830000.0
1212.163,4524330000.0
1212.213,4522900000.0
1212.261,4521670000.0
1212.357,4519590000.0
1212.549,4515870000.0
1212.933,4512290000.0
1213.7,4518870000.0
1214.31,4536270000.0
1214.822,4558730000.0
1215.335,4573440000.0
1215.463,4557490000.0
1215.591,4544430000.0
1215.623,4546550000.0
1215.655,4548710000.0
1215.663,4549250000.0
1215.67,4549730000.0
1215.679,4550320000.0
1215.687,4550870000.0
1215.719,4553030000.0
1215.751,4555220000.0
1215.815,4566200000.0
1215.879,4590050000.0
1216.007,4635520000.0
1216.263,4700350000.0
1216.519,4764500000.0
1216.52,4764780000.0
1216.57,4775370000.0
1216.62,4786400000.0
1216.67,4797830000.0
1216.72,4810000000.0
1216.77,4822650000.0
1216.82,4835630000.0
1216.87,4849150000.0
1216.92,4863200000.0
1216.97,4878370000.0
1217.021,4892510000.0
1217.032,4895240000.0
1217.082,4907360000.0
1217.132,4919740000.0
1217.182,4932940000.0
1217.232,4946510000.0
1217.282,4960700000.0
1217.332,4976180000.0
1217.382,4992320000.0
1217.432,5008930000.0
1217.482,5026170000.0
1217.532,5040290000.0
1217.583,5053060000.0
1217.633,5066320000.0
1217.683,5079810000.0
1217.733,5093810000.0
1217.783,5108350000.0
1217.833,5123410000.0
1217.883,5139140000.0
1217.933,5155500000.0
1217.983,5172520000.0
1218.033,5187500000.0
1218.083,5201350000.0
1218.133,5215420000.0
1218.183,5229800000.0
1218.233,5244770000.0
1218.283,5260230000.0
1218.333,5276180000.0
1218.383,5292590000.0
1218.433,5309570000.0
1218.483,5327630000.0
1218.533,5341500000.0
1218.583,5353190000.0
1218.634,5365070000.0
1218.684,5377150000.0
1218.734,5389440000.0
1218.784,5401960000.0
1218.834,5414700000.0
1218.884,5427650000.0
1218.934,5440880000.0
1218.984,5454180000.0
1219.034,5466690000.0
1219.081,5478180000.0
1219.175,5501910000.0
1219.364,5553860000.0
1219.741,5649770000.0
1220.495,5809370000.0
1221.131,5934220000.0
1221.767,6042530000.0
1222.404,6119390000.0
1223.18,6248320000.0
1223.956,6376380000.0
1225.229,6558220000.0
1227.279,6787650000.0
1229.328,7015030000.0
1231.378,7256480000.0
1233.427,7500920000.0
1235.476,7744930000.0
1237.526,7989980000.0
1239.575,8233900000.0
1241.625,8483050000.0
1245.725,9005200000.0
1249.825,9558100000.0
1250.812,9691100000.0
1252.786,9972970000.0
1256.733,10551000000.0
1260.0,11066900000.0
1263.267,11629600000.0
1265.0,11930400000.0
1268.466,12528500000.0
1270.0,12812200000.0
1273.068,13390300000.0
1275.0,13755600000.0
1278.863,14551500000.0
1280.0,14787100000.0
1282.273,15258400000.0
1285.0,15813300000.0
1287.727,16394000000.0
1290.0,16895300000.0
1294.547,17966400000.0
1295.0,18078300000.0
1295.906,18304200000.0
1297.719,18758000000.0
1300.0,19332900000.0
1305.0,20602200000.0
1310.0,21941700000.0
1315.0,23360500000.0
1320.0,24859300000.0
1325.0,26445300000.0
1330.0,28126800000.0
1335.0,29901300000.0
1340.0,31756700000.0
1345.0,33696000000.0
1350.0,35738100000.0
1355.0,37899300000.0
1360.0,40154400000.0
1365.0,42524800000.0
1370.0,45023100000.0
1374.231,47219200000.0
1378.462,49499400000.0
1379.231,49924200000.0
1380.0,50352300000.0
1381.538,51218500000.0
1384.614,52989300000.0
1385.0,53214800000.0
1385.771,53668400000.0
1387.314,54584800000.0
1390.0,56210700000.0
1395.0,59347500000.0
1400.0,62631500000.0
1405.0,66072400000.0
1410.0,69683000000.0
1415.0,73456600000.0
1420.0,77386600000.0
1425.0,81492100000.0
1430.0,85780800000.0
1435.0,90233800000.0
1440.0,94844300000.0
1445.0,99632200000.0
1450.0,104614000000.0
1455.0,109793000000.0
1460.0,115185000000.0
1465.0,120795000000.0
1470.0,126682000000.0
1473.462,130921000000.0
1476.923,135296000000.0
1478.462,137288000000.0
1480.0,139309000000.0
1483.076,143443000000.0
1485.0,146092000000.0
1488.848,151529000000.0
1490.0,153189000000.0
1492.304,156546000000.0
1495.0,160528000000.0
1500.0,168045000000.0
1505.0,175779000000.0
1510.0,183857000000.0
1515.0,192374000000.0
1520.0,201274000000.0
1525.0,210321000000.0
1530.0,219263000000.0
1535.0,228093000000.0
1540.0,237068000000.0
1545.0,246490000000.0
1550.0,256523000000.0
1555.0,267166000000.0
1560.0,278267000000.0
1565.0,289598000000.0
1570.0,300985000000.0
1572.692,307135000000.0
1575.385,313320000000.0
1577.692,318679000000.0
1580.0,324112000000.0
1584.616,335293000000.0
1585.0,336250000000.0
1585.768,338172000000.0
1587.304,342065000000.0
1590.0,349071000000.0
1595.0,362733000000.0
1600.0,377345000000.0
1605.0,392984000000.0
1610.0,409696000000.0
1615.0,427544000000.0
1620.0,446613000000.0
1625.0,466968000000.0
1630.0,488908000000.0
1635.0,512225000000.0
1640.0,536957000000.0
1645.0,563148000000.0
1650.0,590873000000.0
1655.0,620132000000.0
1660.0,651250000000.0
1665.0,684364000000.0
1670.0,719959000000.0
1671.923,734246000000.0
1673.846,749143000000.0
1676.923,774429000000.0
1680.0,802174000000.0
1685.0,852832000000.0
1687.5,881495000000.0
1690.0,915304000000.0
1692.5,951999000000.0
1695.0,995958000000.0
1697.5,1045180000000.0
1700.0,1105310000000.0
1702.5,1174860000000.0
1705.0,1260360000000.0
1707.5,1358310000000.0
1710.0,1480530000000.0
1711.25,1548430000000.0
1712.5,1621580000000.0
1713.75,1705100000000.0
1715.0,1800600000000.0
1717.5,2002260000000.0
1718.75,2120030000000.0
1720.0,2255320000000.0
1722.5,2539260000000.0
1723.75,2703860000000.0
1725.0,2893710000000.0
1727.5,3289700000000.0
1728.75,3517700000000.0
1730.0,3776700000000.0
1732.5,4308410000000.0
1733.75,4610550000000.0
1735.0,4951050000000.0
1737.5,5643680000000.0
1738.75,6033400000000.0
1740.0,6468350000000.0
1742.5,7342780000000.0
1743.75,7828190000000.0
1745.0,8366490000000.0
1747.5,9427860000000.0
1748.75,10009200000000.0
1750.0,10646300000000.0
1752.5,11894900000000.0
1755.0,13301300000000.0
1757.5,14681600000000.0
1759.327,15767500000000.0
1761.154,16888200000000.0
1764.808,19138100000000.0
1772.116,23741500000000.0
1772.308,23859500000000.0
1772.808,24170800000000.0
1773.808,24809500000000.0
1775.808,26121200000000.0
1779.808,28590600000000.0
1783.808,30991500000000.0
1791.808,35595200000000.0
1799.808,39803500000000.0
1807.808,43600100000000.0
1815.808,47097300000000.0
1821.539,49397800000000.0
1833.001,53660300000000.0
1844.463,57586400000000.0
1855.925,61285000000000.0
1867.387,64837800000000.0
1870.769,65873500000000.0
1877.534,67911400000000.0
1891.064,71951600000000.0
1904.594,75956900000000.0
1918.123,79957800000000.0
1920.0,80514800000000.0
1923.753,81623800000000.0
1931.26,83849300000000.0
1946.274,88318800000000.0
1961.288,92811400000000.0
1969.231,95199900000000.0
1985.118,99987000000000.0
2001.004,104794000000000.0
2016.891,109612000000000.0
2018.462,110095000000000.0
2021.604,111054000000000.0
2027.888,112962000000000.0
2040.455,116828000000000.0
2053.022,120716000000000.0
2065.59,124655000000000.0
2067.692,125317000000000.0
2071.896,126642000000000.0
2080.304,129311000000000.0
2097.121,134680000000000.0
2113.937,140082000000000.0
2116.923,141049000000000.0
2122.895,142967000000000.0
2134.84,146786000000000.0
2146.784,150591000000000.0
2158.728,154384000000000.0
2166.154,156700000000000.0
2181.006,161308000000000.0
2195.857,165818000000000.0
2210.709,170306000000000.0
2215.385,171717000000000.0
2224.738,174534000000000.0
2243.443,180197000000000.0
2262.148,185940000000000.0
2264.615,186708000000000.0
2269.55,188241000000000.0
2279.419,191313000000000.0
2299.157,197586000000000.0
2313.846,202392000000000.0
2328.535,207291000000000.0
2343.224,212302000000000.0
2357.913,217437000000000.0
2363.077,219257000000000.0
2373.405,222914000000000.0
2383.733,226574000000000.0
2394.061,230227000000000.0
2404.389,233857000000000.0
2412.307,236605000000000.0
2428.142,242008000000000.0
2443.977,247286000000000.0
2459.812,252421000000000.0
2461.538,252969000000000.0
2464.991,254048000000000.0
2471.896,256206000000000.0
2485.707,260471000000000.0
2499.517,264651000000000.0
2510.769,267982000000000.0
2522.021,271275000000000.0
2533.273,274512000000000.0
2544.525,277724000000000.0
2555.777,280898000000000.0
2560.0,282086000000000.0
2568.446,284427000000000.0
2585.339,289072000000000.0
2602.231,293661000000000.0
2619.124,298195000000000.0
2636.017,302678000000000.0
2652.909,307112000000000.0
2658.461,308559000000000.0
2669.564,311415000000000.0
2680.668,314251000000000.0
2691.771,317085000000000.0
2702.875,319893000000000.0
2713.979,322658000000000.0
2725.082,325435000000000.0
2736.186,328159000000000.0
2747.289,330860000000000.0
2756.923,333188000000000.0
2776.191,337759000000000.0
2795.459,342263000000000.0
