Wavelength,Flux
900.0,3765680.0
903.442,4167350.0
904.998,4361520.0
906.554,4563950.0
908.11,4774970.0
909.667,4995050.0
910.703,5146590.0
911.74,5302490.0
911.84,5317760.0
912.0,5342250.0
912.31,5390020.0
912.779,5463030.0
913.717,5611760.0
914.335,5711780.0
915.329,5876070.0
915.824,5959490.0
915.892,5971040.0
916.028,5994210.0
916.3,6040790.0
916.429,6062920.0
916.686,6107410.0
917.181,6193770.0
917.448,6240850.0
917.982,6335980.0
918.129,6362420.0
918.423,6415600.0
919.004,6521770.0
919.351,6586000.0
920.045,6716010.0
920.56,6814040.0
920.963,6891950.0
921.769,7048830.0
922.117,7117640.0
922.506,7195280.0
922.895,7274510.0
922.992,7295250.0
923.089,7315350.0
923.114,7320470.0
923.138,7325380.0
923.144,7326600.0
923.15,7327840.0
923.156,7329070.0
923.162,7330300.0
923.187,7335430.0
923.211,7340350.0
923.261,7350610.0
923.308,7359960.0
923.402,7378020.0
923.405,7378600.0
923.455,7388400.0
923.555,7408190.0
923.755,7448880.0
923.794,7456830.0
923.872,7472710.0
924.028,7504730.0
924.183,7536760.0
924.436,7589360.0
924.688,7642050.0
924.939,7694600.0
925.189,7747280.0
925.579,7830760.0
925.97,7921450.0
926.067,7947700.0
926.165,7970160.0
926.189,7975480.0
926.214,7981010.0
926.22,7982340.0
926.226,7983680.0
926.232,7985000.0
926.238,7986330.0
926.263,7991880.0
926.287,7997200.0
926.337,8008290.0
926.385,8018120.0
926.481,8033890.0
926.532,8042290.0
926.632,8060690.0
926.832,8101590.0
926.873,8110380.0
926.955,8128130.0
927.119,8163810.0
927.263,8194630.0
927.551,8257610.0
927.875,8329730.0
928.487,8466190.0
929.097,8605310.0
929.706,8747690.0
930.098,8842840.0
930.491,8965270.0
930.589,9004810.0
930.687,9030510.0
930.711,9036460.0
930.736,9042680.0
930.742,9044170.0
930.748,9045650.0
930.754,9047150.0
930.76,9048640.0
930.785,9054830.0
930.809,9060810.0
930.859,9073260.0
930.907,9083780.0
931.003,9091500.0
931.005,9091660.0
931.055,9095020.0
931.155,9106580.0
931.355,9143430.0
931.398,9152720.0
931.484,9172090.0
931.656,9211250.0
931.79,9242070.0
932.058,9306170.0
932.593,9438430.0
933.033,9549310.0
933.914,9771600.0
934.276,9864530.0
935.001,10054600.0
935.514,10191700.0
936.54,10469800.0
936.753,10530500.0
937.148,10655700.0
937.544,10852000.0
937.642,10912900.0
937.741,10944200.0
937.766,10951600.0
937.791,10959000.0
937.797,10960800.0
937.803,10962500.0
937.809,10964300.0
937.815,10966100.0
937.84,10973500.0
937.865,10980900.0
937.915,10995700.0
937.964,11008200.0
938.062,11004300.0
938.258,10998800.0
938.458,11026900.0
938.853,11128900.0
939.643,11352100.0
940.434,11586900.0
942.015,12071600.0
942.894,12349300.0
943.773,12634000.0
944.625,12916800.0
945.478,13205600.0
947.079,13763500.0
948.68,14365200.0
949.08,14556700.0
949.28,14698100.0
949.48,14905900.0
949.58,15002000.0
949.68,15043900.0
949.705,15053700.0
949.73,15063600.0
949.737,15066400.0
949.743,15068800.0
949.749,15071200.0
949.755,15073500.0
949.781,15083800.0
949.806,15093800.0
949.856,15113600.0
949.906,15131000.0
950.006,15113100.0
950.056,15096600.0
950.156,15068000.0
950.356,15061000.0
950.406,15063900.0
950.506,15084300.0
950.706,15142500.0
950.806,15170000.0
951.005,15236700.0
951.404,15385200.0
952.202,15697000.0
952.407,15778100.0
952.816,15940500.0
953.635,16275100.0
954.008,16430500.0
954.753,16746200.0
955.609,17115300.0
957.211,17827600.0
958.812,18569400.0
960.413,19336800.0
960.776,19515400.0
961.14,19696200.0
961.376,19814300.0
961.611,19932700.0
962.081,20171700.0
963.021,20657800.0
963.251,20778200.0
963.71,21021000.0
964.629,21513200.0
964.89,21654500.0
965.412,21939700.0
966.456,22514200.0
966.53,22555900.0
966.678,22639400.0
966.975,22807600.0
967.567,23148400.0
968.169,23500000.0
969.372,24218600.0
969.809,24484500.0
970.683,25026200.0
971.448,25510900.0
971.858,25774400.0
972.268,26041000.0
972.37,26107700.0
972.473,26175200.0
972.499,26192300.0
972.524,26208700.0
972.531,26213300.0
972.537,26217300.0
972.543,26221200.0
972.55,26225800.0
972.575,26242300.0
972.601,26259400.0
972.653,26293700.0
972.703,26326600.0
972.803,26392600.0
972.806,26394600.0
972.856,26427700.0
972.956,26493900.0
973.156,26626900.0
973.216,26666900.0
973.336,26747100.0
973.576,26908000.0
973.626,26941700.0
973.726,27009100.0
973.926,27144400.0
974.326,27417200.0
975.126,27971600.0
975.265,28069500.0
975.544,28266200.0
976.101,28663500.0
976.905,29243400.0
978.512,30437000.0
978.544,30461100.0
978.608,30509400.0
978.735,30606200.0
978.989,30800800.0
979.498,31193700.0
980.184,31731500.0
981.556,32835200.0
981.823,33054100.0
982.357,33496100.0
983.424,34396200.0
983.463,34429000.0
983.54,34494800.0
983.694,34626700.0
984.003,34892200.0
984.62,35429300.0
985.102,35854800.0
986.065,36721200.0
986.742,37341900.0
988.095,38613700.0
988.381,38887700.0
988.953,39441300.0
990.021,40495800.0
991.66,42166900.0
993.3,43906500.0
996.58,47594600.0
996.65,47676400.0
996.79,47840500.0
997.07,48170300.0
997.63,48836900.0
998.75,50196600.0
1000.0,51752500.0
1001.912,54225200.0
1003.824,56813000.0
1005.553,59256500.0
1007.282,61799600.0
1009.011,64446200.0
1010.74,67200300.0
1012.469,70065200.0
1014.199,73045100.0
1015.928,76138000.0
1017.657,79344700.0
1019.386,82649500.0
1021.115,85982700.0
1022.844,89033600.0
1023.709,90019600.0
1024.574,90221700.0
1025.006,90744000.0
1025.222,91578800.0
1025.438,93015300.0
1025.546,93806800.0
1025.654,94187200.0
1025.681,94243500.0
1025.708,94300000.0
1025.715,94314400.0
1025.72,94324900.0
1025.722,94329400.0
1025.729,94344000.0
1025.736,94358400.0
1025.763,94414900.0
1025.79,94471600.0
1025.844,94579300.0
1025.898,94602000.0
1026.005,94268600.0
1026.056,94102500.0
1026.106,93947000.0
1026.156,93814000.0
1026.206,93706200.0
1026.256,93655800.0
1026.306,93628600.0
1026.356,93613000.0
1026.406,93642600.0
1026.438,93686000.0
1026.501,93747400.0
1026.628,94051800.0
1026.87,94924700.0
1027.355,96957100.0
1028.324,100823000.0
1028.6,101736000.0
1029.152,103417000.0
1030.257,106556000.0
1030.329,106756000.0
1030.474,107153000.0
1030.763,107948000.0
1031.341,109533000.0
1032.058,111486000.0
1033.493,115397000.0
1033.787,116209000.0
1034.376,117839000.0
1035.516,121048000.0
1037.246,126080000.0
1038.975,131265000.0
1040.704,136625000.0
1042.433,142183000.0
1044.162,147947000.0
1045.892,153930000.0
1047.621,160133000.0
1048.81,164532000.0
1050.0,169047000.0
1052.38,178422000.0
1055.0,189300000.0
1057.62,200674000.0
1060.0,211536000.0
1064.76,234912000.0
1065.0,236151000.0
1065.48,238649000.0
1066.441,243718000.0
1068.363,254148000.0
1070.0,263349000.0
1073.273,282676000.0
1075.0,293382000.0
1078.453,315911000.0
1080.0,326361000.0
1081.538,337062000.0
1083.077,348087000.0
1086.155,371100000.0
1086.538,374054000.0
1087.304,380030000.0
1088.835,392238000.0
1090.0,401767000.0
1092.33,421458000.0
1095.0,445093000.0
1097.67,469899000.0
1100.0,492544000.0
1104.661,540793000.0
1105.0,544464000.0
1105.679,551866000.0
1107.036,566826000.0
1109.751,597690000.0
1110.0,600591000.0
1110.498,606436000.0
1111.494,618263000.0
1113.486,642509000.0
1115.0,661480000.0
1118.027,700670000.0
1120.0,727114000.0
1123.945,782119000.0
1125.0,797282000.0
1127.109,827924000.0
1130.0,869939000.0
1131.154,886881000.0
1132.308,903913000.0
1134.616,938529000.0
1136.154,961650000.0
1139.23,1007260000.0
1140.0,1018160000.0
1141.539,1040030000.0
1144.617,1082450000.0
1145.0,1087800000.0
1145.766,1097760000.0
1147.297,1118120000.0
1150.0,1153100000.0
1152.703,1187640000.0
1155.406,1221430000.0
1158.109,1255810000.0
1160.812,1293050000.0
1163.516,1333970000.0
1165.769,1373540000.0
1168.022,1418260000.0
1170.276,1468880000.0
1174.783,1580110000.0
1179.29,1702380000.0
1181.538,1767020000.0
1185.628,1889900000.0
1189.718,2019460000.0
1191.767,2087550000.0
1193.816,2158850000.0
1195.866,2231680000.0
1197.915,2307130000.0
1199.964,2385650000.0
1202.014,2466280000.0
1204.063,2549720000.0
1206.113,2637250000.0
1208.162,2729470000.0
1210.211,2824860000.0
1212.261,2919530000.0
1214.31,3012730000.0
1214.822,3036240000.0
1215.335,3059940000.0
1215.463,3065890000.0
1215.591,3071860000.0
1215.623,3073360000.0
1215.655,3074850000.0
1215.663,3075210000.0
1215.67,3075540000.0
1215.679,3075960000.0
1215.687,3076340000.0
1215.719,3077820000.0
1215.751,3079310000.0
1215.815,3082290000.0
1215.879,3085250000.0
1216.007,3091190000.0
1216.263,3103060000.0
1216.52,3114890000.0
1217.032,3137890000.0
1218.056,3179180000.0
1219.081,3217120000.0
1221.131,3295380000.0
1223.18,3385470000.0
1225.229,3480770000.0
1227.279,3585940000.0
1229.328,3695190000.0
1231.378,3806850000.0
1233.427,3922240000.0
1235.476,4041180000.0
1237.526,4163620000.0
1239.575,4289380000.0
1241.625,4418220000.0
1245.725,4686370000.0
1249.825,4969150000.0
1250.812,5039400000.0
1252.786,5182740000.0
1256.733,5480150000.0
1260.0,5737800000.0
1263.267,6008660000.0
1265.0,6156120000.0
1268.466,6459740000.0
1270.0,6599630000.0
1273.068,6887560000.0
1275.0,7073730000.0
1278.863,7466510000.0
1280.0,7585630000.0
1282.273,7827450000.0
1285.0,8120600000.0
1287.727,8425180000.0
1290.0,8687470000.0
1294.547,9240160000.0
1295.0,9297430000.0
1295.906,9412770000.0
1297.719,9646680000.0
1300.0,9946350000.0
1305.0,10619800000.0
1310.0,11332500000.0
1315.0,12088100000.0
1320.0,12888100000.0
1325.0,13735500000.0
1330.0,14635000000.0
1335.0,15586300000.0
1340.0,16585600000.0
1345.0,17634800000.0
1350.0,18741800000.0
1355.0,19914500000.0
1360.0,21143500000.0
1365.0,22438300000.0
1370.0,23805000000.0
1374.231,25010600000.0
1378.462,26266000000.0
1379.231,26500200000.0
1380.0,26736200000.0
1381.538,27213900000.0
1384.614,28191700000.0
1385.0,28316400000.0
1385.771,28567100000.0
1387.314,29074000000.0
1390.0,29974400000.0
1395.0,31714700000.0
1400.0,33541800000.0
1405.0,35460800000.0
1410.0,37478700000.0
1415.0,39593300000.0
1420.0,41801800000.0
1425.0,44114500000.0
1430.0,46536600000.0
1435.0,49058400000.0
1440.0,51675400000.0
1445.0,54399100000.0
1450.0,57239100000.0
1455.0,60197800000.0
1460.0,63285000000.0
1465.0,66504100000.0
1470.0,69889300000.0
1473.462,72332000000.0
1476.923,74857300000.0
1478.462,76008300000.0
1480.0,77177400000.0
1483.076,79571700000.0
1485.0,81108400000.0
1488.848,84266500000.0
1490.0,85236600000.0
1492.304,87187900000.0
1495.0,89505800000.0
1500.0,93888700000.0
1505.0,98406300000.0
1510.0,103137000000.0
1515.0,108141000000.0
1520.0,113387000000.0
1525.0,118722000000.0
1530.0,123982000000.0
1535.0,129167000000.0
1540.0,134448000000.0
1545.0,140021000000.0
1550.0,145967000000.0
1555.0,152293000000.0
1560.0,158906000000.0
1565.0,165664000000.0
1570.0,172463000000.0
1572.692,176140000000.0
1575.385,179843000000.0
1577.692,183055000000.0
1580.0,186320000000.0
1584.616,193061000000.0
1585.0,193639000000.0
1585.768,194799000000.0
1587.304,197149000000.0
1590.0,201380000000.0
1595.0,209625000000.0
1600.0,218435000000.0
1605.0,227869000000.0
1610.0,238000000000.0
1615.0,248886000000.0
1620.0,260580000000.0
1625.0,273200000000.0
1630.0,286716000000.0
1635.0,301076000000.0
1640.0,316163000000.0
1645.0,331900000000.0
1650.0,348180000000.0
1655.0,364822000000.0
1660.0,381911000000.0
1665.0,399383000000.0
1670.0,417320000000.0
1671.923,424319000000.0
1673.846,431426000000.0
1676.923,443038000000.0
1680.0,454925000000.0
1685.0,474797000000.0
1690.0,495540000000.0
1695.0,517276000000.0
1700.0,540151000000.0
1705.0,564316000000.0
1710.0,589944000000.0
1715.0,617136000000.0
1720.0,646216000000.0
1725.0,677468000000.0
1730.0,711003000000.0
1735.0,747628000000.0
1740.0,787329000000.0
1745.0,829941000000.0
1750.0,876510000000.0
1760.0,978548000000.0
1761.154,991030000000.0
1763.462,1016010000000.0
1768.078,1067340000000.0
1772.308,1116770000000.0
1780.767,1219930000000.0
1797.686,1437760000000.0
1806.145,1553580000000.0
1814.604,1673000000000.0
1821.539,1775040000000.0
1835.409,1992510000000.0
1849.278,2225680000000.0
1863.148,2477820000000.0
1870.769,2626240000000.0
1886.011,2944830000000.0
1901.254,3293240000000.0
1916.496,3673130000000.0
1920.0,3765210000000.0
1927.007,3954970000000.0
1941.022,4359510000000.0
1955.037,4798270000000.0
1969.051,5270380000000.0
1969.231,5276680000000.0
1969.731,5294230000000.0
1970.731,5329460000000.0
1972.731,5400140000000.0
1976.731,5544140000000.0
1984.731,5841020000000.0
2000.731,6468570000000.0
2016.731,7139390000000.0
2018.462,7216380000000.0
2021.924,7370850000000.0
2028.849,7685830000000.0
2042.697,8358590000000.0
2056.546,9080610000000.0
2067.692,9704170000000.0
2078.838,10371100000000.0
2089.984,11077600000000.0
2101.13,11834900000000.0
2112.276,12624900000000.0
2116.923,12972400000000.0
2126.218,13675900000000.0
2144.806,15152800000000.0
2163.395,16683000000000.0
2166.154,16903600000000.0
2171.672,17353400000000.0
2182.707,18269000000000.0
2193.742,19146300000000.0
2204.777,20036600000000.0
2215.385,20887500000000.0
2225.993,21764700000000.0
2236.601,22669200000000.0
2247.209,23624000000000.0
2257.817,24624900000000.0
2264.615,25305400000000.0
2278.212,26746600000000.0
2291.808,28363500000000.0
2305.405,30178600000000.0
2313.846,31454500000000.0
2322.287,32831700000000.0
2330.728,34428800000000.0
2339.169,36141000000000.0
2347.61,38137500000000.0
2355.343,40152600000000.0
2363.077,42376100000000.0
2370.811,44880400000000.0
2378.544,47658800000000.0
2386.278,50698900000000.0
2394.011,54081300000000.0
2401.745,57846800000000.0
2409.479,61774600000000.0
2412.307,63337500000000.0
2417.963,66698900000000.0
2429.276,73579900000000.0
2434.932,77388800000000.0
2440.588,81576800000000.0
2451.901,89402000000000.0
2456.719,93170000000000.0
2461.538,97056100000000.0
2466.357,100492000000000.0
2471.176,104155000000000.0
2475.995,108067000000000.0
2480.813,112185000000000.0
2485.632,115608000000000.0
2490.451,119213000000000.0
2495.27,123016000000000.0
2500.089,127029000000000.0
2504.908,130349000000000.0
2509.727,133713000000000.0
2510.769,134458000000000.0
2512.854,135966000000000.0
2517.024,139063000000000.0
2525.364,144716000000000.0
2542.043,155413000000000.0
2558.723,164814000000000.0
2560.0,165562000000000.0
2562.554,166839000000000.0
2567.661,169312000000000.0
2577.876,174365000000000.0
2588.091,178919000000000.0
2598.306,183344000000000.0
2608.521,187345000000000.0
2618.735,191261000000000.0
2628.95,194827000000000.0
2639.165,198339000000000.0
2649.38,201568000000000.0
2658.461,204411000000000.0
2676.623,209697000000000.0
2694.785,216426000000000.0
2712.947,221482000000000.0
2731.109,225556000000000.0
2749.271,229578000000000.0
2756.923,231264000000000.0
2772.226,234608000000000.0
2787.53,237931000000000.0
2802.833,241232000000000.0
2818.136,244511000000000.0
2833.439,247766000000000.0
2848.742,250997000000000.0
2855.385,252391000000000.0
2868.67,255155000000000.0
2881.955,257900000000000.0
2895.24,260624000000000.0
2908.526,263327000000000.0
2921.811,266008000000000.0
2935.096,268668000000000.0
2945.1,270656000000000.0
2953.846,272384000000000.0
2971.338,275792000000000.0
2988.829,279159000000000.0
3006.321,282485000000000.0
3023.813,285768000000000.0
3041.304,289008000000000.0
3052.308,291024000000000.0
3063.312,293015000000000.0
3074.315,294990000000000.0
3085.319,296946000000000.0
3096.323,298885000000000.0
3107.326,300805000000000.0
3118.33,302708000000000.0
3129.334,304592000000000.0
3140.337,306457000000000.0
3150.769,308208000000000.0
3161.201,309942000000000.0
3171.632,311660000000000.0
3182.064,313360000000000.0
3187.7,314272000000000.0
3198.972,316080000000000.0
3210.244,317869000000000.0
3221.516,319638000000000.0
3232.788,321386000000000.0
3244.06,323115000000000.0
3249.231,323901000000000.0
3259.573,325461000000000.0
3269.916,327004000000000.0
3280.258,328530000000000.0
3290.6,330038000000000.0
3300.942,331530000000000.0
3311.285,333004000000000.0
3321.627,334461000000000.0
3331.969,335900000000000.0
3342.312,337323000000000.0
3347.692,338056000000000.0
3358.453,339509000000000.0
3369.213,340944000000000.0
3379.974,342360000000000.0
3390.735,343756000000000.0
3401.496,345135000000000.0
3412.256,346494000000000.0
3423.017,347835000000000.0
3433.778,349158000000000.0
3444.539,350461000000000.0
3446.154,350655000000000.0
3449.385,351041000000000.0
3455.847,351808000000000.0
3468.771,353322000000000.0
3481.695,354809000000000.0
3494.618,356269000000000.0
3507.542,357702000000000.0
3520.466,359109000000000.0
3533.39,360490000000000.0
3544.615,361667000000000.0
3555.84,362820000000000.0
3567.065,363953000000000.0
3578.29,365066000000000.0
3589.515,366160000000000.0
3595.868,366770000000000.0
3608.573,367969000000000.0
3621.278,369144000000000.0
3633.983,370293000000000.0
3646.5,371401000000000.0
3647.0,371445000000000.0
3647.12,371455000000000.0
3647.22,370540000000000.0
3647.42,370558000000000.0
3647.819,370593000000000.0
3648.0,370609000000000.0
3648.362,370641000000000.0
3649.085,370705000000000.0
3650.533,370834000000000.0
3653.427,371089000000000.0
3659.216,371597000000000.0
3665.005,372099000000000.0
3668.675,372415000000000.0
3676.014,373040000000000.0
3682.807,373612000000000.0
3686.832,373947000000000.0
3690.13,374220000000000.0
3691.554,374337000000000.0
3694.402,374571000000000.0
3696.486,374742000000000.0
3697.152,374796000000000.0
3698.484,374904000000000.0
3701.148,375120000000000.0
3702.843,375257000000000.0
3703.853,375338000000000.0
3705.0,375431000000000.0
3707.294,375615000000000.0
3709.2,375767000000000.0
3711.971,375986000000000.0
3715.556,376270000000000.0
3721.913,376766000000000.0
3721.938,376768000000000.0
3721.988,376772000000000.0
3722.038,376776000000000.0
3722.088,376780000000000.0
3722.138,376784000000000.0
3722.188,376788000000000.0
3722.238,376792000000000.0
3722.288,376797000000000.0
3722.338,376801000000000.0
3722.388,376804000000000.0
3722.438,376808000000000.0
3722.489,376812000000000.0
3722.539,376817000000000.0
3722.589,376820000000000.0
3722.639,376824000000000.0
3722.689,376828000000000.0
3722.739,376832000000000.0
3722.789,376836000000000.0
3722.839,376840000000000.0
3722.889,376844000000000.0
3722.939,376848000000000.0
3722.989,376851000000000.0
3723.039,376856000000000.0
3723.089,376859000000000.0
3723.139,376863000000000.0
3723.189,376867000000000.0
3723.239,376871000000000.0
3723.289,376875000000000.0
3723.339,376879000000000.0
3723.389,376883000000000.0
3723.439,376886000000000.0
3723.49,376890000000000.0
3723.54,376894000000000.0
3723.59,376898000000000.0
3723.64,376902000000000.0
3723.69,376906000000000.0
3723.74,376910000000000.0
3723.79,376914000000000.0
3723.84,376918000000000.0
3723.89,376921000000000.0
3723.94,376925000000000.0
3723.99,376929000000000.0
3724.04,376933000000000.0
3724.09,376937000000000.0
3724.14,376941000000000.0
3724.19,376945000000000.0
3724.24,376949000000000.0
3724.29,376953000000000.0
3724.34,376956000000000.0
3724.39,376960000000000.0
3724.44,376964000000000.0
3724.49,376968000000000.0
3724.541,376972000000000.0
3724.591,376976000000000.0
3724.641,376980000000000.0
3724.691,376983000000000.0
3724.741,376988000000000.0
3724.791,376991000000000.0
3724.841,376995000000000.0
3724.891,376999000000000.0
3724.941,377003000000000.0
3724.991,377007000000000.0
3725.041,377011000000000.0
3725.091,377014000000000.0
3725.141,377018000000000.0
3725.191,377022000000000.0
3725.241,377026000000000.0
3725.291,377030000000000.0
3725.341,377034000000000.0
3725.391,377038000000000.0
3725.441,377042000000000.0
3725.491,377045000000000.0
3725.542,377049000000000.0
3725.592,377053000000000.0
3725.642,377057000000000.0
3725.692,377061000000000.0
3725.742,377065000000000.0
3725.792,377069000000000.0
3725.842,377072000000000.0
3725.892,377077000000000.0
3725.942,377080000000000.0
3725.992,377084000000000.0
3726.042,377088000000000.0
3726.092,377092000000000.0
3726.142,377096000000000.0
3726.192,377100000000000.0
3726.242,377103000000000.0
3726.292,377107000000000.0
3726.342,377111000000000.0
3726.392,377115000000000.0
3726.442,377119000000000.0
3726.492,377123000000000.0
3726.542,377127000000000.0
3726.593,377131000000000.0
3726.643,377135000000000.0
3726.693,377138000000000.0
3726.743,377142000000000.0
3726.793,377146000000000.0
3726.843,377150000000000.0
3726.893,377154000000000.0
3726.943,377157000000000.0
3726.993,377161000000000.0
