Wavelength,Flux
900.0,630788000.0
903.442,684584000.0
904.998,710224000.0
906.554,736720000.0
908.11,764098000.0
909.667,792402000.0
910.703,811750000.0
911.74,831539000.0
911.84,833471000.0
912.0,836569000.0
912.31,842599000.0
912.779,851798000.0
913.717,870465000.0
914.335,889965000.0
914.644,907412000.0
914.953,924545000.0
915.141,911206000.0
915.329,903402000.0
915.423,905360000.0
915.517,919772000.0
915.611,927878000.0
915.658,918537000.0
915.705,911820000.0
915.755,912289000.0
915.805,913337000.0
915.824,913737000.0
915.874,914787000.0
915.892,915166000.0
915.942,916833000.0
915.992,929265000.0
916.042,951057000.0
916.092,967548000.0
916.142,972826000.0
916.192,964172000.0
916.242,945367000.0
916.292,927194000.0
916.342,924665000.0
916.429,926513000.0
916.516,928365000.0
916.56,931891000.0
916.603,950809000.0
916.647,980425000.0
916.69,1007890000.0
916.74,1032790000.0
916.79,1046580000.0
916.84,1047430000.0
916.89,1034310000.0
916.94,1007680000.0
916.99,973644000.0
917.04,945631000.0
917.09,940662000.0
917.14,941737000.0
917.181,942616000.0
917.262,944373000.0
917.303,946794000.0
917.344,964121000.0
917.385,998910000.0
917.425,1037890000.0
917.448,1059780000.0
917.498,1102780000.0
917.548,1135550000.0
917.598,1158930000.0
917.648,1170850000.0
917.698,1171200000.0
917.748,1158950000.0
917.798,1132530000.0
917.848,1094540000.0
917.898,1044460000.0
917.948,994428000.0
917.998,964200000.0
918.048,961485000.0
918.098,962583000.0
918.129,963270000.0
918.191,964643000.0
918.223,965333000.0
918.254,968372000.0
918.285,982603000.0
918.316,1010920000.0
918.347,1047270000.0
918.379,1087760000.0
918.441,1166960000.0
918.503,1236120000.0
918.566,1291670000.0
918.628,1332010000.0
918.69,1357780000.0
918.753,1369320000.0
918.815,1365480000.0
918.878,1344780000.0
918.94,1304880000.0
918.972,1276600000.0
919.004,1241950000.0
919.036,1204180000.0
919.068,1160570000.0
919.132,1072930000.0
919.164,1033440000.0
919.196,1003380000.0
919.228,989845000.0
919.26,988447000.0
919.324,989889000.0
919.351,990489000.0
919.404,991686000.0
919.431,992287000.0
919.457,993023000.0
919.484,998497000.0
919.51,1014570000.0
919.537,1042370000.0
919.563,1077520000.0
919.59,1118160000.0
919.617,1160500000.0
919.67,1246900000.0
919.776,1405900000.0
919.829,1475110000.0
919.882,1534500000.0
919.935,1584120000.0
919.988,1625400000.0
920.041,1658980000.0
920.094,1683610000.0
920.148,1698870000.0
920.201,1704300000.0
920.254,1699240000.0
920.307,1682790000.0
920.36,1654020000.0
920.413,1613140000.0
920.466,1560340000.0
920.519,1493230000.0
920.56,1432720000.0
920.61,1353300000.0
920.66,1265890000.0
920.71,1178310000.0
920.76,1097240000.0
920.81,1040550000.0
920.86,1025140000.0
920.91,1026210000.0
920.963,1027440000.0
921.069,1030060000.0
921.096,1035960000.0
921.122,1053400000.0
921.149,1084190000.0
921.175,1123400000.0
921.202,1169690000.0
921.229,1217820000.0
921.255,1270960000.0
921.282,1324430000.0
921.335,1430370000.0
921.441,1638030000.0
921.547,1826190000.0
921.653,1982520000.0
921.76,2106210000.0
921.866,2198080000.0
921.972,2260680000.0
922.078,2292840000.0
922.117,2296670000.0
922.195,2290490000.0
922.273,2263880000.0
922.311,2242000000.0
922.35,2214380000.0
922.428,2139890000.0
922.467,2092310000.0
922.506,2037430000.0
922.556,1957560000.0
922.606,1866240000.0
922.656,1765500000.0
922.756,1549760000.0
922.856,1330100000.0
922.895,1249310000.0
922.934,1176410000.0
922.973,1117270000.0
922.992,1097660000.0
923.042,1077110000.0
923.089,1078070000.0
923.114,1078680000.0
923.138,1079260000.0
923.144,1079410000.0
923.15,1079550000.0
923.156,1079700000.0
923.162,1079840000.0
923.187,1080450000.0
923.211,1081040000.0
923.261,1082640000.0
923.308,1105520000.0
923.358,1174400000.0
923.405,1265280000.0
923.455,1376730000.0
923.505,1495270000.0
923.605,1746620000.0
923.705,2007150000.0
923.794,2225830000.0
923.883,2425840000.0
923.972,2603040000.0
924.061,2757550000.0
924.15,2892790000.0
924.183,2938200000.0
924.249,3021590000.0
924.38,3159810000.0
924.436,3208170000.0
924.549,3284970000.0
924.661,3336790000.0
924.688,3345350000.0
924.741,3357970000.0
924.848,3364400000.0
924.939,3348040000.0
925.03,3308910000.0
925.121,3243490000.0
925.189,3174810000.0
925.257,3088040000.0
925.325,2982140000.0
925.393,2857810000.0
925.461,2716060000.0
925.529,2553230000.0
925.579,2422680000.0
925.629,2284200000.0
925.679,2139770000.0
925.779,1842970000.0
925.874,1578330000.0
925.97,1343540000.0
926.018,1245630000.0
926.067,1176670000.0
926.116,1154260000.0
926.164,1155230000.0
926.189,1155870000.0
926.214,1156520000.0
926.22,1156670000.0
926.226,1156830000.0
926.232,1156980000.0
926.238,1157140000.0
926.263,1157790000.0
926.287,1158410000.0
926.337,1160040000.0
926.385,1185100000.0
926.435,1260220000.0
926.482,1359420000.0
926.532,1484200000.0
926.582,1618600000.0
926.632,1765860000.0
926.682,1921110000.0
926.732,2086360000.0
926.782,2254320000.0
926.873,2562000000.0
926.964,2858720000.0
927.055,3139900000.0
927.146,3405020000.0
927.237,3643870000.0
927.263,3707630000.0
927.315,3829810000.0
927.418,4051750000.0
927.521,4246740000.0
927.624,4419090000.0
927.727,4570820000.0
927.875,4760780000.0
928.023,4918680000.0
928.172,5046030000.0
928.32,5143930000.0
928.469,5214890000.0
928.487,5221830000.0
928.537,5238260000.0
928.637,5261000000.0
928.837,5261500000.0
928.937,5236140000.0
929.037,5191120000.0
929.097,5153750000.0
929.217,5049590000.0
929.337,4904440000.0
929.457,4713780000.0
929.517,4601300000.0
929.577,4475240000.0
929.638,4335320000.0
929.698,4179860000.0
929.706,4157140000.0
929.756,4014220000.0
929.856,3700570000.0
929.906,3529300000.0
929.956,3349350000.0
930.056,2979460000.0
930.098,2818070000.0
930.182,2493640000.0
930.266,2176550000.0
930.351,1885350000.0
930.421,1671340000.0
930.491,1482620000.0
930.54,1374260000.0
930.589,1299360000.0
930.638,1276450000.0
930.687,1277670000.0
930.711,1278350000.0
930.736,1279060000.0
930.742,1279230000.0
930.748,1279400000.0
930.754,1279570000.0
930.76,1279740000.0
930.785,1280450000.0
930.809,1281130000.0
930.859,1282770000.0
930.907,1308530000.0
930.957,1389100000.0
931.005,1499680000.0
931.055,1636530000.0
931.105,1786500000.0
931.155,1953030000.0
931.205,2132320000.0
931.255,2327100000.0
931.305,2529690000.0
931.398,2920560000.0
931.584,3710780000.0
931.687,4130530000.0
931.79,4525760000.0
931.893,4890010000.0
931.996,5229300000.0
932.099,5542130000.0
932.202,5827220000.0
932.305,6091720000.0
932.407,6332190000.0
932.613,6757540000.0
932.819,7112130000.0
933.025,7407890000.0
933.033,7418720000.0
933.083,7483230000.0
933.183,7605350000.0
933.383,7825150000.0
933.583,8015270000.0
933.783,8178300000.0
933.983,8314520000.0
934.183,8425730000.0
934.276,8468710000.0
934.462,8536930000.0
934.834,8590550000.0
935.02,8567240000.0
935.206,8505360000.0
935.36,8424040000.0
935.514,8299950000.0
935.564,8251090000.0
935.664,8139480000.0
935.864,7857380000.0
935.964,7677150000.0
936.064,7464980000.0
936.164,7226260000.0
936.264,6955450000.0
936.364,6653970000.0
936.464,6323420000.0
936.564,5962300000.0
936.664,5562500000.0
936.753,5187900000.0
936.842,4786390000.0
936.931,4364460000.0
937.11,3496370000.0
937.148,3312000000.0
937.224,2950570000.0
937.3,2605110000.0
937.377,2288410000.0
937.453,2009950000.0
937.529,1767990000.0
937.544,1725480000.0
937.594,1599880000.0
937.642,1516140000.0
937.692,1490360000.0
937.741,1491810000.0
937.766,1492620000.0
937.791,1493440000.0
937.797,1493630000.0
937.803,1493820000.0
937.809,1494020000.0
937.815,1494220000.0
937.84,1495030000.0
937.865,1495840000.0
937.915,1497640000.0
937.964,1526870000.0
938.014,1619220000.0
938.062,1745070000.0
938.112,1899780000.0
938.162,2070850000.0
938.212,2260550000.0
938.262,2465870000.0
938.312,2691180000.0
938.362,2927970000.0
938.458,3406980000.0
938.554,3902320000.0
938.746,4914520000.0
938.853,5457510000.0
938.96,5975230000.0
939.067,6472970000.0
939.173,6941040000.0
939.28,7389790000.0
939.494,8209550000.0
939.601,8577990000.0
939.708,8918040000.0
939.921,9532530000.0
940.135,10063400000.0
940.348,10530900000.0
940.434,10704400000.0
940.605,11028300000.0
940.948,11593500000.0
941.29,12091800000.0
941.633,12508600000.0
941.975,12866900000.0
942.015,12905400000.0
942.094,12978400000.0
942.253,13117900000.0
942.57,13374600000.0
942.894,13608900000.0
943.543,14016700000.0
943.773,14128100000.0
944.233,14306600000.0
944.625,14406400000.0
945.017,14446100000.0
945.408,14402900000.0
945.478,14386200000.0
945.618,14343300000.0
945.898,14211900000.0
946.177,14010800000.0
946.457,13727500000.0
946.737,13347700000.0
947.017,12860900000.0
947.079,12734700000.0
947.203,12461900000.0
947.452,11836900000.0
947.576,11477200000.0
947.7,11078200000.0
947.825,10643100000.0
947.949,10167600000.0
948.073,9647440000.0
948.197,9088050000.0
948.322,8486420000.0
948.446,7854910000.0
948.563,7221070000.0
948.68,6561720000.0
948.797,5870120000.0
948.914,5157230000.0
949.08,4160730000.0
949.163,3679280000.0
949.246,3225540000.0
949.329,2817480000.0
949.412,2464810000.0
949.446,2333890000.0
949.48,2213920000.0
949.514,2106400000.0
949.548,2018440000.0
949.58,1953860000.0
949.63,1925850000.0
949.68,1927770000.0
949.705,1928790000.0
949.73,1929810000.0
949.737,1930100000.0
949.743,1930340000.0
949.749,1930590000.0
949.755,1930830000.0
949.781,1931900000.0
949.806,1932920000.0
949.856,1935090000.0
949.906,1967470000.0
949.956,2078820000.0
950.006,2238520000.0
950.056,2424320000.0
950.106,2633410000.0
950.156,2861550000.0
950.206,3108070000.0
950.256,3379940000.0
950.306,3666630000.0
950.406,4273960000.0
950.456,4588530000.0
950.556,5226870000.0
950.756,6527000000.0
950.806,6846730000.0
950.906,7464990000.0
951.106,8653850000.0
951.307,9765940000.0
951.507,10791400000.0
951.707,11721900000.0
951.907,12566800000.0
952.107,13327500000.0
952.307,14028900000.0
952.407,14356700000.0
952.606,14969300000.0
953.004,16053400000.0
953.402,16977100000.0
953.8,17760100000.0
954.008,18126800000.0
954.424,18793700000.0
954.841,19380200000.0
955.257,19907900000.0
955.609,20319000000.0
956.313,21085500000.0
957.211,21931600000.0
958.109,22698700000.0
958.812,23264000000.0
960.218,24327800000.0
960.413,24473900000.0
960.776,24785600000.0
961.14,25049500000.0
961.376,25220000000.0
961.611,25389400000.0
962.081,25727900000.0
963.021,26392100000.0
963.251,26553700000.0
963.71,26876500000.0
964.629,27513900000.0
964.89,27693800000.0
965.412,28051100000.0
966.456,28745000000.0
966.53,28793100000.0
966.678,28889000000.0
966.975,29076100000.0
967.567,29437900000.0
968.169,29768500000.0
969.372,30261400000.0
969.809,30369300000.0
970.683,30466400000.0
970.874,30432800000.0
971.065,30401700000.0
971.161,30387200000.0
971.257,30373200000.0
971.352,30283100000.0
971.448,29721100000.0
971.639,28793500000.0
971.831,28051600000.0
971.858,27957100000.0
971.913,27775600000.0
972.022,27355900000.0
972.132,26709200000.0
972.242,26144700000.0
972.268,26020300000.0
972.321,25782400000.0
972.37,25572700000.0
972.469,25180700000.0
972.473,25163500000.0
972.499,25066300000.0
972.524,24975100000.0
972.531,24949900000.0
972.537,24928500000.0
972.543,24907000000.0
972.55,24882300000.0
972.575,24794900000.0
972.601,24704600000.0
972.653,24529200000.0
972.703,24457600000.0
972.803,24347200000.0
972.806,24343900000.0
972.856,24290000000.0
972.956,24185200000.0
973.156,23987300000.0
973.216,23930300000.0
973.336,23858400000.0
973.456,24043900000.0
973.576,24233000000.0
973.626,24313000000.0
973.726,24475500000.0
973.926,24810900000.0
974.326,25719400000.0
974.726,26753400000.0
975.265,28157600000.0
975.804,29417500000.0
976.344,30507800000.0
976.905,31549000000.0
978.028,33898000000.0
978.544,34902400000.0
979.576,36889200000.0
980.184,38217000000.0
980.792,39444400000.0
981.399,40383200000.0
981.823,40908200000.0
982.67,41918700000.0
983.463,42818800000.0
985.048,44712200000.0
985.102,44775300000.0
985.209,44901900000.0
985.423,45157400000.0
985.851,45653800000.0
986.708,46686200000.0
986.742,46728200000.0
986.81,46811900000.0
986.947,46978300000.0
987.221,47314400000.0
987.767,47940800000.0
988.381,48713700000.0
989.608,50156200000.0
990.021,50644200000.0
990.847,51511300000.0
991.66,52403400000.0
992.473,53506500000.0
993.287,54786600000.0
993.3,54809200000.0
993.35,54894500000.0
993.45,55066100000.0
993.65,55414600000.0
993.85,55765600000.0
994.05,56106800000.0
994.25,56453200000.0
994.45,56774600000.0
994.65,57076800000.0
994.85,57383200000.0
995.05,57683400000.0
995.25,57945200000.0
995.45,58210400000.0
995.65,58475800000.0
995.85,58755000000.0
996.05,59038300000.0
996.25,59325300000.0
996.45,59625900000.0
996.65,59976400000.0
997.05,60690200000.0
997.849,62254200000.0
999.448,65318400000.0
1000.0,66678000000.0
1000.552,67595600000.0
1001.103,68380600000.0
1001.912,69501200000.0
1003.53,71661300000.0
1003.824,72028600000.0
1004.412,72705000000.0
1005.553,73840800000.0
1007.282,75185300000.0
1009.011,75791400000.0
1009.875,75784200000.0
1010.74,75528500000.0
1012.469,74304000000.0
1013.333,73331500000.0
1014.198,72167800000.0
1014.249,72095800000.0
1014.349,71956000000.0
1014.549,71674200000.0
1014.749,71375400000.0
1014.949,71083600000.0
1015.149,70769900000.0
1015.349,70458600000.0
1015.549,70154900000.0
1015.749,69841900000.0
1015.928,69571200000.0
1016.286,68998300000.0
1017.002,67854100000.0
1017.657,66767300000.0
1018.968,64482000000.0
1019.386,63643500000.0
1020.223,61701200000.0
1020.669,60443700000.0
1021.115,58958000000.0
1021.561,57193400000.0
1022.007,55021700000.0
1022.426,52462900000.0
1022.844,49369800000.0
1023.262,45620100000.0
1023.681,40983800000.0
1023.89,38326300000.0
1024.099,35150400000.0
1024.309,31699500000.0
1024.518,28276400000.0
1024.574,27217400000.0
1024.63,26179400000.0
1024.742,24096900000.0
1024.967,19791600000.0
1025.006,19040800000.0
1025.084,17541100000.0
1025.162,15967500000.0
1025.24,14362200000.0
1025.318,12770100000.0
1025.395,11305200000.0
1025.438,10574900000.0
1025.488,9757910000.0
1025.538,9069570000.0
1025.546,8971840000.0
1025.596,8542240000.0
1025.646,8425180000.0
1025.654,8425320000.0
1025.681,8428910000.0
1025.708,8432940000.0
1025.715,8433990000.0
1025.72,8434750000.0
1025.722,8435050000.0
1025.729,8436100000.0
1025.736,8437150000.0
1025.763,8441190000.0
1025.79,8445260000.0
1025.844,8496820000.0
1025.871,8629360000.0
1025.898,8861310000.0
1025.925,9169400000.0
1025.952,9544970000.0
1026.005,10390900000.0
1026.056,11287400000.0
1026.106,12241600000.0
1026.156,13246500000.0
1026.206,14316600000.0
1026.256,15402400000.0
1026.306,16487200000.0
1026.356,17568000000.0
1026.406,18619500000.0
1026.438,19268900000.0
1026.501,20517100000.0
1026.628,23109000000.0
1026.87,27843400000.0
1027.112,32313400000.0
1027.355,36504900000.0
1027.597,40580500000.0
1027.839,44000800000.0
1028.082,47277300000.0
1028.324,50117400000.0
1028.566,52893600000.0
1028.6,53224300000.0
1028.668,53885000000.0
1028.803,55204600000.0
1029.073,57731700000.0
1029.344,59931700000.0
1029.614,62018600000.0
1030.155,65718200000.0
1030.329,66780100000.0
1030.676,68897300000.0
1031.37,73130300000.0
1032.058,76901900000.0
1032.745,80175900000.0
1033.433,83250800000.0
1033.787,84816800000.0
1034.495,87473800000.0
1035.203,89836000000.0
1035.516,91154000000.0
1036.142,94345600000.0
1036.768,98504800000.0
1037.246,102465000000.0
1037.724,106632000000.0
1038.68,115090000000.0
1038.975,117938000000.0
1039.565,122864000000.0
1040.155,127103000000.0
1040.704,131298000000.0
1041.803,140395000000.0
1042.433,145163000000.0
1043.694,154982000000.0
1044.162,158863000000.0
1045.099,167096000000.0
1045.892,175117000000.0
1046.685,183397000000.0
1047.621,191882000000.0
1048.557,200478000000.0
1048.81,203234000000.0
1049.317,208988000000.0
1050.0,216684000000.0
1050.683,222679000000.0
1051.366,227683000000.0
1052.731,237016000000.0
1055.0,250624000000.0
1056.134,257496000000.0
1057.269,259463000000.0
1057.836,259926000000.0
1058.403,261641000000.0
1058.97,265339000000.0
1059.537,270991000000.0
1060.0,276924000000.0
1060.463,284068000000.0
1060.926,292632000000.0
1061.389,303029000000.0
1061.852,315737000000.0
1062.314,331083000000.0
1062.777,349005000000.0
1063.24,369471000000.0
1063.703,391247000000.0
1064.629,433438000000.0
1065.0,448724000000.0
1065.742,476906000000.0
1066.484,506368000000.0
1067.969,567097000000.0
1068.477,580599000000.0
1068.984,587723000000.0
1069.492,588964000000.0
1070.0,586804000000.0
1071.016,581508000000.0
1072.031,587059000000.0
1073.047,593831000000.0
1074.023,588784000000.0
1075.0,573536000000.0
1075.488,565885000000.0
1075.977,561191000000.0
1076.465,562206000000.0
1076.953,570354000000.0
1077.441,586930000000.0
1077.93,613134000000.0
1078.174,630490000000.0
1078.418,650172000000.0
1078.662,674159000000.0
1078.906,701019000000.0
1079.15,731768000000.0
1079.395,766095000000.0
1079.639,804239000000.0
1079.883,847252000000.0
1080.0,869639000000.0
1080.234,916593000000.0
1080.469,968581000000.0
1080.703,1022850000000.0
1081.172,1139640000000.0
1081.538,1242210000000.0
1081.904,1349440000000.0
1082.636,1577780000000.0
1083.077,1722550000000.0
1083.959,2016820000000.0
1085.722,2607270000000.0
1086.538,2868400000000.0
1088.17,3368610000000.0
1088.986,3636500000000.0
1089.803,3915220000000.0
1090.0,3983930000000.0
1090.395,4129440000000.0
1091.184,4433280000000.0
1091.974,4691750000000.0
1092.763,4959580000000.0
1094.343,5545510000000.0
1095.0,5811200000000.0
1096.315,6322560000000.0
1098.945,7321620000000.0
1100.0,7723790000000.0
1101.055,8063070000000.0
1102.11,8405660000000.0
1104.221,9124890000000.0
1105.0,9340760000000.0
1105.779,9544500000000.0
1107.338,9959750000000.0
1108.669,10240000000000.0
1110.0,10372600000000.0
1111.331,10463700000000.0
1112.662,10485200000000.0
1113.831,10434800000000.0
1115.0,10389300000000.0
1117.338,10325500000000.0
1118.669,10203700000000.0
1120.0,9997760000000.0
1121.331,9731490000000.0
1122.662,9339960000000.0
1123.831,8910880000000.0
1125.0,8475010000000.0
1126.169,7892800000000.0
1127.338,7287180000000.0
1128.507,6613680000000.0
1129.676,5922680000000.0
1130.0,5728270000000.0
1130.648,5362390000000.0
1131.154,5081960000000.0
1132.165,4516120000000.0
1132.308,4443370000000.0
1132.593,4302830000000.0
1133.164,4022100000000.0
1134.306,3463340000000.0
1135.23,3072640000000.0
1136.154,2683190000000.0
1137.078,2356240000000.0
1138.002,2026720000000.0
1138.926,1771980000000.0
1139.85,1526530000000.0
1140.0,1493160000000.0
1140.299,1430940000000.0
1140.599,1373900000000.0
1140.898,1321530000000.0
1141.497,1213280000000.0
1142.095,1122610000000.0
1142.694,1050340000000.0
1143.292,982058000000.0
1143.891,920282000000.0
1144.446,875702000000.0
1145.0,839170000000.0
1146.109,769384000000.0
1147.218,722707000000.0
1148.327,684866000000.0
1149.163,664399000000.0
1150.0,645180000000.0
1150.837,630864000000.0
1151.673,616251000000.0
1152.51,604863000000.0
1153.347,594632000000.0
1155.02,577844000000.0
1156.693,562960000000.0
1158.367,551106000000.0
1160.04,541823000000.0
1161.713,534659000000.0
1163.387,529321000000.0
1165.769,523706000000.0
1168.151,520758000000.0
1170.534,519735000000.0
1175.298,520568000000.0
1180.063,525991000000.0
1181.538,528833000000.0
1184.488,536736000000.0
1185.628,540411000000.0
1187.908,548338000000.0
1189.718,554567000000.0
1191.767,560151000000.0
1193.816,563351000000.0
1195.866,563360000000.0
1197.915,560571000000.0
1199.964,555641000000.0
1202.014,548324000000.0
1204.063,536038000000.0
1205.087,525639000000.0
1206.112,512625000000.0
1206.113,512608000000.0
1206.163,511847000000.0
1206.213,511092000000.0
1206.263,510341000000.0
1206.313,509595000000.0
1206.363,508857000000.0
1206.413,508127000000.0
1206.463,507403000000.0
1206.513,506600000000.0
1206.563,505599000000.0
1206.614,504611000000.0
1206.664,503634000000.0
1206.714,502670000000.0
1206.764,501719000000.0
1206.814,500780000000.0
1206.864,499851000000.0
1206.914,498933000000.0
1206.964,498025000000.0
1207.014,497045000000.0
1207.064,495864000000.0
1207.114,494700000000.0
1207.164,493552000000.0
1207.214,492421000000.0
1207.264,491305000000.0
1207.314,490205000000.0
1207.364,489121000000.0
