Wavelength,Flux
900.0,32179800.0
903.442,35322400.0
904.998,36832600.0
906.554,38401300.0
908.11,40030400.0
909.667,41723300.0
910.703,42885400.0
911.74,44078100.0
911.84,44194700.0
912.0,44381900.0
912.31,44746400.0
912.779,45303200.0
913.717,46435700.0
914.335,47203400.0
915.329,48442100.0
915.824,49073800.0
915.892,49161200.0
916.028,49695200.0
916.164,50116800.0
916.297,49734000.0
916.429,49856200.0
916.495,49942500.0
916.561,50089100.0
916.628,50736000.0
916.694,51388600.0
916.76,51814000.0
916.826,52024800.0
916.892,51996900.0
916.958,51607000.0
917.025,50930200.0
917.091,50724700.0
917.157,50812300.0
917.181,50844300.0
917.231,50910700.0
917.331,51298400.0
917.39,52318400.0
917.448,53341500.0
917.506,54132500.0
917.565,54733200.0
917.623,55133500.0
917.682,55350900.0
917.74,55363500.0
917.799,55102800.0
917.857,54468800.0
917.916,53432900.0
917.974,52300400.0
918.033,51984900.0
918.081,52050000.0
918.129,52115200.0
918.225,52246100.0
918.273,52551200.0
918.322,53706700.0
918.37,55121400.0
918.418,56476100.0
918.466,57579100.0
918.514,58517100.0
918.611,59853800.0
918.707,60690100.0
918.803,61075100.0
918.9,60877400.0
918.948,60472400.0
918.996,59792600.0
919.004,59643900.0
919.054,58491200.0
919.104,56988800.0
919.154,55259900.0
919.204,53899900.0
919.254,53660900.0
919.302,53728400.0
919.351,53796100.0
919.448,53931700.0
919.497,54293900.0
919.545,55837700.0
919.594,57946800.0
919.642,60073400.0
919.691,61969800.0
919.739,63624300.0
919.788,64987000.0
919.836,66113700.0
919.933,67847500.0
920.03,69100900.0
920.127,69972000.0
920.224,70478800.0
920.321,70553500.0
920.419,70000900.0
920.467,69384400.0
920.516,68471900.0
920.56,67340500.0
920.604,65831900.0
920.649,63933900.0
920.693,61740200.0
920.738,59374200.0
920.782,57320700.0
920.827,56046000.0
920.871,55955400.0
920.915,56019700.0
920.963,56088600.0
921.058,56226500.0
921.106,56555600.0
921.153,58314100.0
921.201,61003400.0
921.248,64019200.0
921.343,69554300.0
921.391,71869900.0
921.438,73852500.0
921.486,75543500.0
921.534,76999000.0
921.629,79361800.0
921.724,81178300.0
921.819,82608700.0
922.009,84659800.0
922.117,85409900.0
922.225,85821000.0
922.333,85783200.0
922.419,85295000.0
922.506,84217700.0
922.549,83379100.0
922.593,82292900.0
922.643,80669900.0
922.693,78596600.0
922.742,76029700.0
922.792,72906700.0
922.842,69409300.0
922.895,65485600.0
922.943,62116100.0
922.992,59811400.0
923.042,59178200.0
923.089,59247500.0
923.114,59285600.0
923.138,59322100.0
923.144,59331300.0
923.15,59340400.0
923.156,59349600.0
923.162,59358800.0
923.187,59396900.0
923.211,59433500.0
923.261,59513300.0
923.308,60302300.0
923.358,62918300.0
923.405,66527900.0
923.455,70745000.0
923.505,74904900.0
923.555,78837800.0
923.605,82358600.0
923.655,85475600.0
923.705,88199200.0
923.794,92196500.0
923.883,95339300.0
923.972,97887300.0
924.061,99979200.0
924.183,102353000.0
924.305,104353000.0
924.427,106034000.0
924.436,106150000.0
924.486,106750000.0
924.586,107840000.0
924.688,108804000.0
924.892,110215000.0
924.939,110420000.0
925.033,110655000.0
925.189,110374000.0
925.267,109799000.0
925.345,108835000.0
925.423,107355000.0
925.501,105201000.0
925.579,102317000.0
925.618,100493000.0
925.657,98394400.0
925.695,96011600.0
925.734,93303700.0
925.773,90248800.0
925.812,86896500.0
925.89,79445500.0
925.967,71820800.0
925.97,71567500.0
926.02,67310300.0
926.067,64739300.0
926.117,64027400.0
926.165,64103900.0
926.189,64143300.0
926.214,64184200.0
926.22,64194000.0
926.226,64203900.0
926.232,64213700.0
926.238,64223400.0
926.263,64264500.0
926.287,64303800.0
926.337,64388500.0
926.385,65267300.0
926.435,68249200.0
926.482,72548900.0
926.532,77782400.0
926.582,83216500.0
926.682,93632600.0
926.777,102159000.0
926.873,109220000.0
926.969,115019000.0
927.064,119958000.0
927.16,124059000.0
927.255,127539000.0
927.263,127799000.0
927.313,129356000.0
927.413,132206000.0
927.613,136964000.0
927.813,140875000.0
927.875,141950000.0
927.999,143947000.0
928.247,147477000.0
928.487,150349000.0
928.727,152705000.0
928.967,154042000.0
929.097,154276000.0
929.227,154031000.0
929.357,153148000.0
929.487,151467000.0
929.617,148795000.0
929.706,146196000.0
929.794,142688000.0
929.883,138336000.0
929.971,132920000.0
930.06,126326000.0
930.098,123188000.0
930.174,116256000.0
930.25,108378000.0
930.326,99682000.0
930.402,90460000.0
930.478,81517900.0
930.491,80159100.0
930.541,75368200.0
930.589,72523300.0
930.639,71814100.0
930.687,71900300.0
930.711,71943800.0
930.736,71989300.0
930.742,72000200.0
930.748,72011000.0
930.754,72022000.0
930.76,72032900.0
930.785,72078200.0
930.809,72122000.0
930.859,72214900.0
930.907,73107500.0
930.957,76325300.0
931.005,81209800.0
931.055,87164600.0
931.105,93523500.0
931.205,106357000.0
931.302,117941000.0
931.398,128412000.0
931.495,138022000.0
931.591,146724000.0
931.688,154582000.0
931.784,161449000.0
931.79,161854000.0
931.84,165044000.0
931.94,170965000.0
932.04,176249000.0
932.14,180847000.0
932.24,185111000.0
932.44,192404000.0
932.64,198501000.0
932.84,203781000.0
933.033,208247000.0
933.419,216153000.0
933.805,223092000.0
934.192,229255000.0
934.276,230499000.0
934.445,232871000.0
934.782,236574000.0
935.119,238971000.0
935.456,239731000.0
935.514,239618000.0
935.63,239141000.0
935.862,236805000.0
935.977,234732000.0
936.093,232013000.0
936.209,228397000.0
936.325,223584000.0
936.441,217728000.0
936.557,210398000.0
936.655,202961000.0
936.753,194377000.0
936.851,184648000.0
936.949,173801000.0
937.048,162067000.0
937.146,149754000.0
937.148,149471000.0
937.198,143036000.0
937.298,129671000.0
937.398,115602000.0
937.498,101368000.0
937.544,95346900.0
937.594,89783800.0
937.642,86518400.0
937.692,85683900.0
937.741,85787700.0
937.766,85840700.0
937.791,85894200.0
937.797,85907000.0
937.803,85919600.0
937.809,85932600.0
937.815,85945300.0
937.84,85998700.0
937.865,86051900.0
937.915,86159900.0
937.964,87215700.0
938.014,90912900.0
938.062,96582600.0
938.112,103488000.0
938.162,110908000.0
938.262,126103000.0
938.458,154430000.0
938.654,181544000.0
938.85,206626000.0
938.853,206968000.0
938.903,212882000.0
939.003,224027000.0
939.103,234298000.0
939.203,243512000.0
939.303,252224000.0
939.503,267224000.0
939.703,279630000.0
939.903,290203000.0
940.103,298954000.0
940.303,306584000.0
940.434,311155000.0
940.696,319025000.0
941.22,332314000.0
941.744,343459000.0
942.015,348819000.0
942.556,358923000.0
942.894,365122000.0
943.57,375638000.0
943.773,378391000.0
944.18,383461000.0
944.625,388272000.0
945.478,395616000.0
945.878,397804000.0
946.279,398315000.0
946.679,395162000.0
947.079,387603000.0
947.279,381133000.0
947.479,373147000.0
947.679,362492000.0
947.879,349273000.0
948.079,332834000.0
948.279,312553000.0
948.479,288680000.0
948.68,260739000.0
948.73,253302000.0
948.83,237726000.0
949.03,205049000.0
949.08,196728000.0
949.18,179913000.0
949.28,162274000.0
949.38,143972000.0
949.48,126879000.0
949.53,119933000.0
949.58,115782000.0
949.63,114772000.0
949.68,114910000.0
949.705,114979000.0
949.73,115049000.0
949.737,115068000.0
949.743,115085000.0
949.749,115102000.0
949.755,115118000.0
949.781,115190000.0
949.806,115260000.0
949.856,115400000.0
949.906,116682000.0
949.956,121149000.0
950.006,128493000.0
950.056,137168000.0
950.106,146547000.0
950.206,165916000.0
950.406,202969000.0
950.456,212042000.0
950.556,230173000.0
950.756,265583000.0
950.806,273958000.0
950.906,290439000.0
951.106,320927000.0
951.307,348136000.0
951.507,372011000.0
951.707,392411000.0
951.907,410842000.0
952.107,426681000.0
952.307,440835000.0
952.407,447314000.0
952.606,458870000.0
953.004,478114000.0
953.402,493821000.0
953.8,507403000.0
954.008,513993000.0
954.424,527225000.0
955.257,549543000.0
955.609,558024000.0
956.313,574017000.0
957.211,592748000.0
958.812,625475000.0
960.413,657643000.0
960.776,665531000.0
961.14,672917000.0
961.376,677623000.0
961.611,682347000.0
962.081,691949000.0
963.021,711506000.0
963.251,716206000.0
963.71,725727000.0
964.629,745389000.0
964.89,751088000.0
965.412,762109000.0
966.456,784727000.0
966.53,786355000.0
966.678,789618000.0
966.975,796103000.0
967.567,808542000.0
968.169,821159000.0
969.372,845560000.0
969.809,853495000.0
970.683,867677000.0
971.065,872544000.0
971.448,867064000.0
971.653,853751000.0
971.858,841929000.0
971.908,839282000.0
972.008,833666000.0
972.108,822141000.0
972.208,811660000.0
972.268,805810000.0
972.37,797369000.0
972.473,790131000.0
972.499,788407000.0
972.524,786794000.0
972.531,786346000.0
972.537,785967000.0
972.543,785584000.0
972.55,785147000.0
972.575,783591000.0
972.601,782002000.0
972.653,778955000.0
972.703,777948000.0
972.803,776583000.0
972.806,776543000.0
972.856,775885000.0
972.956,774655000.0
973.156,772442000.0
973.216,771827000.0
973.336,771412000.0
973.456,776071000.0
973.576,780808000.0
973.626,782810000.0
973.726,786869000.0
973.926,795219000.0
974.326,817012000.0
974.726,841655000.0
975.265,877501000.0
975.804,910120000.0
976.344,938536000.0
976.905,965470000.0
978.028,1023560000.0
978.544,1049110000.0
979.576,1097120000.0
980.184,1127410000.0
981.399,1180610000.0
981.823,1195200000.0
982.67,1224760000.0
983.463,1253140000.0
985.048,1311540000.0
985.102,1313500000.0
985.209,1317440000.0
985.423,1325450000.0
985.851,1341600000.0
986.708,1375360000.0
986.742,1376750000.0
986.81,1379560000.0
986.947,1385150000.0
987.221,1396010000.0
987.767,1416310000.0
988.381,1440740000.0
989.608,1491110000.0
990.021,1508820000.0
990.847,1540870000.0
991.66,1573780000.0
993.287,1652070000.0
993.3,1652830000.0
993.35,1655440000.0
993.45,1660260000.0
993.65,1669960000.0
993.85,1679600000.0
994.05,1689470000.0
994.25,1699460000.0
994.45,1709250000.0
994.65,1718930000.0
994.85,1728720000.0
995.05,1738600000.0
995.25,1748100000.0
995.45,1757760000.0
995.65,1767580000.0
995.85,1777710000.0
996.05,1788130000.0
996.25,1798580000.0
996.45,1809440000.0
996.65,1821380000.0
997.05,1841950000.0
997.849,1886180000.0
999.448,1980630000.0
1000.0,2018500000.0
1001.103,2078130000.0
1001.912,2122590000.0
1003.53,2216240000.0
1003.824,2232380000.0
1004.412,2262090000.0
1005.553,2321460000.0
1007.282,2411110000.0
1009.011,2484740000.0
1010.74,2543180000.0
1011.604,2563470000.0
1012.469,2571870000.0
1013.333,2571100000.0
1014.198,2560760000.0
1014.249,2559820000.0
1014.349,2558080000.0
1014.549,2554060000.0
1014.749,2549000000.0
1014.949,2543950000.0
1015.149,2537680000.0
1015.349,2530800000.0
1015.549,2523050000.0
1015.749,2514460000.0
1015.928,2507220000.0
1016.286,2490720000.0
1017.002,2453440000.0
1017.657,2415200000.0
1018.968,2337070000.0
1019.386,2309980000.0
1020.223,2251810000.0
1021.115,2176360000.0
1022.007,2090150000.0
1022.426,2037450000.0
1022.844,1968510000.0
1023.262,1878130000.0
1023.681,1758530000.0
1023.89,1688340000.0
1024.099,1598400000.0
1024.309,1495920000.0
1024.518,1389030000.0
1024.574,1354530000.0
1024.686,1287670000.0
1024.911,1147150000.0
1025.006,1083640000.0
1025.196,948922000.0
1025.291,870013000.0
1025.386,783073000.0
1025.438,734334000.0
1025.49,687767000.0
1025.541,649150000.0
1025.546,646281000.0
1025.596,624496000.0
1025.646,618876000.0
1025.654,618876000.0
1025.681,619188000.0
1025.708,619527000.0
1025.715,619615000.0
1025.72,619678000.0
1025.722,619704000.0
1025.729,619792000.0
1025.736,619880000.0
1025.763,620219000.0
1025.79,620561000.0
1025.844,623573000.0
1025.871,630217000.0
1025.898,641814000.0
1025.925,658403000.0
1025.952,678524000.0
1025.979,701746000.0
1026.005,727047000.0
1026.056,776641000.0
1026.106,826076000.0
1026.156,874177000.0
1026.206,919943000.0
1026.256,963914000.0
1026.306,1005240000.0
1026.356,1044840000.0
1026.406,1083100000.0
1026.438,1106170000.0
1026.501,1151290000.0
1026.628,1241120000.0
1026.87,1401780000.0
1027.112,1552050000.0
1027.233,1617710000.0
1027.355,1685340000.0
1027.476,1753400000.0
1027.597,1809900000.0
1027.718,1860490000.0
1027.839,1909580000.0
1028.081,2005170000.0
1028.323,2086520000.0
1028.566,2164700000.0
1028.6,2174170000.0
1028.668,2192990000.0
1028.805,2230030000.0
1029.078,2299850000.0
1029.625,2416930000.0
1030.172,2524210000.0
1030.329,2553230000.0
1030.642,2613290000.0
1031.269,2745960000.0
1032.058,2908610000.0
1033.635,3204530000.0
1033.787,3233520000.0
1034.091,3289230000.0
1034.698,3379030000.0
1035.306,3477880000.0
1035.516,3519040000.0
1035.937,3614680000.0
1036.358,3727160000.0
1036.779,3866180000.0
1037.246,4047640000.0
1037.713,4236490000.0
1038.648,4604660000.0
1038.975,4738270000.0
1039.629,4968330000.0
1040.284,5168000000.0
1040.704,5305980000.0
1041.545,5599050000.0
1042.433,5889300000.0
1044.162,6430050000.0
1045.027,6733440000.0
1045.892,7067790000.0
1047.621,7760690000.0
1048.81,8180320000.0
1049.405,8434670000.0
1049.999,8689420000.0
1050.05,8709010000.0
1050.1,8727820000.0
1050.15,8746840000.0
1050.2,8766440000.0
1050.25,8785510000.0
1050.3,8804820000.0
1050.35,8824070000.0
1050.4,8844020000.0
1050.45,8863380000.0
1050.5,8882970000.0
1050.551,8900680000.0
1050.601,8918100000.0
1050.651,8935610000.0
1050.701,8953020000.0
1050.751,8971490000.0
1050.801,8989600000.0
1050.851,9007990000.0
1050.901,9025810000.0
1050.951,9044060000.0
1051.001,9061670000.0
1051.051,9078650000.0
1051.101,9095530000.0
1051.151,9112650000.0
1051.201,9130320000.0
1051.251,9147670000.0
1051.301,9164920000.0
1051.351,9182420000.0
1051.401,9199860000.0
1051.451,9216680000.0
1051.501,9234530000.0
1051.552,9252310000.0
1051.602,9270480000.0
1051.652,9288530000.0
1051.702,9306920000.0
1051.752,9325900000.0
1051.802,9344550000.0
1051.852,9363070000.0
1051.902,9381660000.0
1051.952,9400690000.0
1052.002,9417960000.0
1052.052,9437990000.0
1052.102,9457030000.0
1052.152,9476220000.0
1052.202,9495760000.0
1052.252,9515240000.0
1052.302,9535160000.0
1052.352,9554870000.0
1052.402,9572760000.0
1052.452,9593400000.0
1052.502,9612950000.0
1052.552,9632270000.0
1052.603,9648400000.0
1052.653,9662340000.0
1052.703,9676710000.0
1052.753,9690760000.0
1052.803,9704750000.0
1052.853,9719200000.0
1052.903,9733250000.0
1052.953,9747400000.0
1053.003,9761920000.0
1053.053,9776390000.0
1053.103,9790000000.0
1053.153,9803930000.0
1053.203,9817590000.0
1053.253,9831200000.0
1053.303,9844920000.0
1053.353,9859070000.0
1053.403,9872750000.0
1053.453,9886540000.0
1053.503,9900650000.0
1053.553,9914380000.0
1053.604,9928030000.0
1053.654,9941810000.0
1053.704,9955980000.0
1053.754,9969820000.0
1053.804,9983590000.0
1053.854,9997510000.0
1053.904,10011900000.0
1053.954,10025700000.0
1054.004,10039700000.0
1054.054,10054700000.0
1054.104,10070300000.0
1054.154,10085300000.0
1054.204,10100600000.0
1054.254,10115700000.0
1054.304,10131400000.0
1054.354,10146800000.0
1054.404,10162100000.0
1054.454,10177600000.0
1054.504,10193200000.0
1054.554,10210700000.0
1054.604,10227600000.0
1054.655,10243500000.0
1054.705,10260600000.0
1054.755,10277900000.0
1054.805,10295700000.0
1054.855,10312900000.0
1054.905,10330400000.0
1054.955,10347800000.0
1055.0,10364300000.0
1055.09,10396700000.0
1055.271,10461400000.0
1055.632,10591500000.0
1056.355,10827800000.0
1057.078,11015300000.0
1057.8,11178200000.0
1059.246,11616200000.0
1059.623,11805700000.0
1060.0,12019400000.0
1060.754,12533600000.0
1061.132,12844000000.0
1061.509,13206800000.0
1061.886,13622500000.0
1062.263,14075000000.0
1063.018,15103800000.0
1063.772,16067900000.0
1065.0,17637700000.0
1067.456,20816300000.0
1068.092,21616900000.0
1068.728,22099700000.0
1069.364,22451600000.0
1070.0,22722600000.0
1071.272,23445700000.0
1071.908,24030400000.0
1072.544,24742700000.0
1073.18,25347400000.0
1073.816,25638100000.0
1075.0,25960600000.0
1075.592,26210700000.0
1076.184,26663200000.0
1076.776,27457100000.0
1077.368,28722000000.0
1077.96,30631300000.0
1078.552,32809600000.0
1078.848,34155000000.0
1079.144,35637000000.0
1079.44,37314100000.0
1079.736,39213700000.0
1080.0,41086400000.0
1080.527,45246300000.0
1080.791,47545400000.0
1081.055,50118900000.0
1081.538,55346000000.0
1082.021,61087500000.0
1082.263,64179200000.0
1082.505,67611500000.0
1082.746,71094300000.0
1082.988,74712100000.0
1083.077,75705900000.0
1083.255,77780700000.0
1083.611,82168300000.0
1084.323,91447600000.0
1084.679,96466100000.0
1085.035,101893000000.0
1085.747,113564000000.0
1086.103,120144000000.0
1086.459,127453000000.0
1086.538,129012000000.0
1086.697,132604000000.0
1087.014,139422000000.0
1087.331,144434000000.0
1087.649,150113000000.0
1088.284,162332000000.0
1088.918,176208000000.0
1089.236,184067000000.0
1089.553,192266000000.0
1090.0,205505000000.0
1090.447,217279000000.0
1090.894,227728000000.0
1091.341,239323000000.0
1091.788,251873000000.0
1092.234,265811000000.0
1092.681,281087000000.0
1093.128,298628000000.0
1093.575,311232000000.0
1094.022,325262000000.0
1094.469,340661000000.0
1094.916,357691000000.0
1095.0,361065000000.0
1095.168,367918000000.0
1095.505,382503000000.0
1096.177,411013000000.0
1096.85,435379000000.0
1097.523,462757000000.0
1098.196,493661000000.0
1098.869,523531000000.0
1099.434,544507000000.0
1100.0,567808000000.0
1100.566,594025000000.0
1101.131,623454000000.0
1101.697,641009000000.0
1102.262,660099000000.0
1102.828,682236000000.0
1103.393,705395000000.0
1103.959,723127000000.0
1104.524,736918000000.0
1105.0,750720000000.0
1105.951,776403000000.0
1106.902,789933000000.0
1107.854,795308000000.0
1108.329,799079000000.0
1108.805,799872000000.0
1109.28,792889000000.0
1109.756,784076000000.0
1110.0,779900000000.0
1110.488,772229000000.0
1110.977,765205000000.0
1111.465,747248000000.0
1112.441,707954000000.0
1114.395,628046000000.0
1115.0,602373000000.0
1116.211,549562000000.0
1117.422,493820000000.0
1118.633,438108000000.0
1119.316,405848000000.0
1120.0,370979000000.0
1120.684,339522000000.0
1121.367,306269000000.0
1122.051,273193000000.0
1122.734,244388000000.0
1124.102,187453000000.0
1124.551,172063000000.0
1125.0,158356000000.0
1125.449,142341000000.0
1125.898,128512000000.0
1126.348,116536000000.0
1126.797,106148000000.0
1127.246,95983200000.0
1127.695,86561200000.0
1128.145,78633600000.0
1128.594,71876100000.0
1129.043,66081600000.0
1129.492,60115300000.0
1129.746,57221700000.0
1130.0,54642600000.0
1130.254,52305200000.0
1130.508,50191800000.0
1130.762,48276700000.0
1131.016,46513400000.0
1131.154,45428700000.0
1131.431,43464200000.0
1131.708,41770500000.0
1131.985,40280200000.0
1132.308,38756600000.0
1132.631,37405600000.0
1133.278,34994600000.0
1133.601,33878600000.0
1133.925,32929100000.0
1134.248,32105900000.0
1134.572,31386500000.0
1135.218,30100700000.0
1135.865,28981500000.0
1136.154,28588000000.0
1136.732,27923200000.0
1137.888,26752600000.0
1138.467,26316700000.0
1139.045,25954400000.0
1140.0,25323400000.0
1140.955,24916600000.0
1141.911,24535000000.0
1142.866,24284300000.0
1143.821,24018600000.0
1145.0,23818300000.0
1146.179,23623200000.0
1148.536,23456600000.0
1150.0,23420000000.0
1152.928,23481000000.0
1155.855,23593000000.0
1158.783,23771500000.0
1161.711,23949700000.0
1164.639,24154900000.0
1165.769,24212600000.0
1168.03,24328600000.0
1172.551,24596100000.0
1177.073,24988400000.0
1181.538,25529000000.0
1183.583,25873600000.0
1185.628,26294400000.0
1189.718,27225700000.0
1191.767,27613600000.0
1193.816,27875600000.0
1195.866,27998300000.0
1197.915,27983100000.0
1199.964,27877300000.0
1202.014,27674300000.0
1204.063,27268000000.0
1205.087,26873900000.0
1206.112,26373900000.0
1206.113,26373300000.0
1206.163,26343300000.0
1206.213,26313800000.0
1206.263,26284800000.0
1206.313,26256100000.0
1206.363,26227800000.0
1206.413,26199900000.0
1206.463,26172300000.0
1206.513,26141400000.0
1206.563,26100800000.0
1206.614,26060800000.0
1206.664,26022200000.0
1206.714,25986600000.0
1206.764,25951700000.0
1206.814,25917400000.0
1206.864,25883700000.0
1206.914,25850600000.0
1206.964,25818100000.0
1207.014,25782400000.0
1207.064,25738100000.0
1207.114,25694600000.0
1207.164,25651800000.0
1207.214,25609700000.0
1207.264,25568500000.0
1207.314,25528000000.0
1207.364,25488200000.0
1207.414,25449200000.0
1207.464,25410900000.0
1207.514,25370500000.0
1207.564,25324000000.0
1207.615,25278400000.0
1207.665,25233600000.0
1207.715,25189400000.0
