Wavelength,Flux
900.0,632927000.0
903.442,686897000.0
904.998,712619000.0
906.554,739202000.0
908.11,766666000.0
909.667,795060000.0
910.703,814470000.0
911.74,834322000.0
911.84,836260000.0
912.0,839369000.0
912.31,845418000.0
912.779,854646000.0
913.717,873374000.0
914.335,886359000.0
915.329,906414000.0
915.824,916782000.0
915.892,918216000.0
916.028,925973000.0
916.164,934271000.0
916.297,927155000.0
916.429,929598000.0
916.495,931012000.0
916.561,932857000.0
916.628,941761000.0
916.694,955077000.0
916.76,965267000.0
916.826,969260000.0
916.892,966324000.0
916.958,956035000.0
917.025,944810000.0
917.091,943798000.0
917.157,945230000.0
917.181,945753000.0
917.231,946834000.0
917.331,951005000.0
917.39,965567000.0
917.448,985727000.0
917.565,1018670000.0
917.623,1027700000.0
917.682,1031370000.0
917.74,1029170000.0
917.799,1019760000.0
917.857,1002900000.0
917.916,981670000.0
917.974,965958000.0
918.033,964350000.0
918.129,966472000.0
918.225,968601000.0
918.322,984513000.0
918.418,1034830000.0
918.514,1081800000.0
918.611,1113450000.0
918.707,1131680000.0
918.803,1136980000.0
918.9,1126620000.0
918.952,1112720000.0
919.004,1091930000.0
919.056,1064130000.0
919.109,1032420000.0
919.161,1004690000.0
919.213,991952000.0
919.265,991840000.0
919.318,993019000.0
919.351,993778000.0
919.418,995295000.0
919.485,997808000.0
919.552,1020160000.0
919.619,1067540000.0
919.686,1120950000.0
919.753,1168280000.0
919.82,1207430000.0
919.887,1237880000.0
919.954,1261220000.0
920.021,1279560000.0
920.088,1293070000.0
920.155,1301900000.0
920.222,1305900000.0
920.289,1304480000.0
920.356,1296520000.0
920.423,1280340000.0
920.49,1254860000.0
920.525,1236880000.0
920.56,1214990000.0
920.63,1161070000.0
920.699,1099270000.0
920.769,1046740000.0
920.804,1032590000.0
920.839,1028380000.0
920.909,1029580000.0
920.963,1030850000.0
921.072,1033440000.0
921.099,1035360000.0
921.127,1041660000.0
921.154,1054510000.0
921.181,1073920000.0
921.208,1097630000.0
921.235,1125000000.0
921.263,1153880000.0
921.29,1183550000.0
921.317,1212270000.0
921.372,1267050000.0
921.426,1314650000.0
921.481,1357180000.0
921.535,1392960000.0
921.59,1423670000.0
921.699,1472420000.0
921.808,1508480000.0
921.917,1534640000.0
922.026,1552410000.0
922.117,1561260000.0
922.208,1563940000.0
922.3,1559150000.0
922.391,1544680000.0
922.483,1517050000.0
922.506,1507460000.0
922.556,1482740000.0
922.606,1452170000.0
922.656,1414630000.0
922.706,1369540000.0
922.756,1318040000.0
922.806,1260390000.0
922.856,1200150000.0
922.895,1155660000.0
922.934,1117840000.0
922.973,1091720000.0
922.992,1084950000.0
923.042,1080520000.0
923.089,1081630000.0
923.114,1082240000.0
923.138,1082830000.0
923.144,1082970000.0
923.15,1083120000.0
923.156,1083270000.0
923.162,1083410000.0
923.187,1084030000.0
923.211,1084610000.0
923.261,1085890000.0
923.308,1092730000.0
923.358,1122770000.0
923.405,1170500000.0
923.455,1233760000.0
923.505,1302200000.0
923.605,1431100000.0
923.655,1488360000.0
923.705,1540080000.0
923.794,1619300000.0
923.883,1684190000.0
923.972,1736730000.0
924.061,1780460000.0
924.183,1829240000.0
924.305,1867590000.0
924.427,1898470000.0
924.436,1900580000.0
924.486,1911270000.0
924.586,1929720000.0
924.688,1944600000.0
924.892,1961200000.0
924.939,1962110000.0
925.033,1959880000.0
925.189,1941150000.0
925.267,1922630000.0
925.345,1896390000.0
925.423,1860210000.0
925.501,1811950000.0
925.579,1751160000.0
925.657,1674720000.0
925.696,1630430000.0
925.734,1582030000.0
925.812,1474980000.0
925.89,1358780000.0
925.967,1247450000.0
925.97,1244320000.0
926.02,1191070000.0
926.067,1162900000.0
926.117,1157860000.0
926.165,1159060000.0
926.189,1159680000.0
926.214,1160330000.0
926.22,1160490000.0
926.226,1160640000.0
926.232,1160800000.0
926.238,1160950000.0
926.263,1161600000.0
926.287,1162230000.0
926.337,1163580000.0
926.385,1171220000.0
926.435,1204990000.0
926.482,1259190000.0
926.532,1332870000.0
926.582,1414900000.0
926.632,1496700000.0
926.732,1653790000.0
926.802,1753570000.0
926.873,1843280000.0
926.943,1923460000.0
927.014,1993900000.0
927.084,2056770000.0
927.155,2111710000.0
927.263,2184420000.0
927.371,2246800000.0
927.479,2299500000.0
927.587,2345000000.0
927.803,2419800000.0
927.875,2440950000.0
928.019,2478870000.0
928.306,2540030000.0
928.487,2569950000.0
928.849,2607360000.0
929.097,2609020000.0
929.221,2599030000.0
929.345,2579260000.0
929.469,2547020000.0
929.593,2498190000.0
929.706,2435710000.0
929.819,2352450000.0
929.875,2302010000.0
929.932,2245810000.0
930.045,2112380000.0
930.098,2039680000.0
930.205,1875700000.0
930.258,1785320000.0
930.311,1690740000.0
930.418,1497040000.0
930.491,1376780000.0
930.528,1330360000.0
930.564,1297600000.0
930.589,1285640000.0
930.639,1280540000.0
930.687,1281870000.0
930.711,1282550000.0
930.736,1283260000.0
930.742,1283430000.0
930.748,1283600000.0
930.754,1283770000.0
930.76,1283940000.0
930.785,1284650000.0
930.809,1285330000.0
930.859,1286810000.0
930.907,1294730000.0
930.957,1331390000.0
931.005,1392810000.0
931.055,1476400000.0
931.105,1571300000.0
931.155,1668490000.0
931.255,1862600000.0
931.326,1994320000.0
931.398,2118450000.0
931.47,2233820000.0
931.541,2340580000.0
931.684,2529810000.0
931.79,2649710000.0
931.896,2753520000.0
932.002,2844930000.0
932.107,2925500000.0
932.213,2996910000.0
932.425,3116860000.0
932.637,3214350000.0
932.848,3296790000.0
933.033,3359680000.0
933.402,3466710000.0
933.772,3556260000.0
934.276,3656750000.0
934.78,3731090000.0
935.032,3755320000.0
935.284,3767060000.0
935.514,3763350000.0
935.744,3738790000.0
935.973,3685770000.0
936.203,3591450000.0
936.432,3441700000.0
936.593,3293740000.0
936.753,3103500000.0
936.913,2868260000.0
937.074,2586610000.0
937.148,2442390000.0
937.222,2289550000.0
937.371,1965970000.0
937.519,1650100000.0
937.544,1606400000.0
937.594,1537590000.0
937.642,1500930000.0
937.692,1495110000.0
937.741,1496670000.0
937.766,1497480000.0
937.791,1498300000.0
937.797,1498490000.0
937.803,1498690000.0
937.809,1498880000.0
937.815,1499080000.0
937.84,1499900000.0
937.865,1500710000.0
937.915,1502390000.0
937.964,1511510000.0
938.013,1552810000.0
938.062,1624730000.0
938.111,1719860000.0
938.16,1828870000.0
938.258,2057720000.0
938.356,2287950000.0
938.458,2519020000.0
938.56,2738280000.0
938.662,2945540000.0
938.757,3126960000.0
938.853,3294410000.0
938.949,3449640000.0
939.044,3592430000.0
939.235,3841550000.0
939.427,4050560000.0
939.618,4222830000.0
939.809,4369270000.0
940.0,4494260000.0
940.191,4600760000.0
940.382,4695170000.0
940.434,4719000000.0
940.537,4764690000.0
940.744,4848960000.0
941.158,4997760000.0
941.571,5124550000.0
941.985,5239460000.0
942.015,5247440000.0
942.075,5263260000.0
942.196,5294420000.0
942.436,5354990000.0
942.894,5464150000.0
943.773,5657460000.0
944.625,5815920000.0
945.478,5935600000.0
945.905,5969840000.0
946.331,5975340000.0
946.705,5944490000.0
947.079,5861950000.0
947.453,5700020000.0
947.827,5424670000.0
948.014,5228900000.0
948.201,4985250000.0
948.388,4689470000.0
948.575,4338760000.0
948.68,4117350000.0
948.785,3879440000.0
948.89,3625450000.0
948.995,3358610000.0
949.08,3135080000.0
949.25,2668420000.0
949.42,2205690000.0
949.45,2132290000.0
949.48,2067020000.0
949.51,2012160000.0
949.54,1970260000.0
949.58,1937990000.0
949.63,1931950000.0
949.68,1933960000.0
949.705,1934990000.0
949.73,1936010000.0
949.737,1936300000.0
949.743,1936540000.0
949.749,1936790000.0
949.755,1937040000.0
949.781,1938100000.0
949.806,1939130000.0
949.856,1941220000.0
949.906,1951430000.0
949.956,2001440000.0
950.006,2089810000.0
950.056,2208550000.0
950.106,2345010000.0
950.156,2487400000.0
950.256,2783090000.0
950.406,3223060000.0
950.556,3648180000.0
950.706,4055140000.0
950.806,4311580000.0
951.006,4786740000.0
951.205,5209820000.0
951.405,5577830000.0
951.605,5896960000.0
951.805,6172450000.0
952.004,6411630000.0
952.204,6621540000.0
952.407,6805640000.0
952.813,7115760000.0
953.219,7364600000.0
953.625,7575220000.0
954.008,7750470000.0
954.774,8052810000.0
955.54,8314000000.0
955.609,8336280000.0
955.747,8380540000.0
956.023,8467260000.0
956.575,8636820000.0
957.211,8821790000.0
958.482,9183410000.0
958.812,9276410000.0
959.472,9461400000.0
960.413,9721260000.0
960.776,9825860000.0
961.14,9925900000.0
961.376,9990920000.0
961.611,10055900000.0
962.081,10186200000.0
963.021,10449000000.0
963.251,10513700000.0
963.71,10643600000.0
964.629,10905900000.0
964.89,10981100000.0
965.412,11129700000.0
966.456,11425700000.0
966.53,11446900000.0
966.678,11489100000.0
966.975,11573500000.0
967.567,11742000000.0
968.169,11911300000.0
969.372,12239400000.0
969.809,12353600000.0
970.683,12571400000.0
971.448,12651600000.0
971.653,12536000000.0
971.858,12426600000.0
971.908,12401400000.0
972.008,12347400000.0
972.208,12124500000.0
972.268,12063400000.0
972.37,11965300000.0
972.473,11872400000.0
972.499,11849700000.0
972.524,11828500000.0
972.531,11822600000.0
972.537,11817600000.0
972.543,11812600000.0
972.55,11806800000.0
972.575,11786200000.0
972.601,11765100000.0
972.653,11723800000.0
972.703,11710200000.0
972.803,11691600000.0
972.806,11691100000.0
972.856,11682000000.0
972.956,11664400000.0
973.156,11631300000.0
973.216,11621800000.0
973.336,11614700000.0
973.456,11681400000.0
973.576,11749200000.0
973.626,11777900000.0
973.726,11835800000.0
973.926,11954500000.0
974.326,12257200000.0
974.726,12590500000.0
975.265,13025800000.0
975.804,13406200000.0
976.344,13735600000.0
976.905,14048800000.0
978.028,14700100000.0
978.544,14967800000.0
979.576,15464600000.0
980.184,15757200000.0
981.399,16280500000.0
981.823,16445100000.0
982.67,16776000000.0
983.463,17084200000.0
985.048,17715400000.0
985.102,17737000000.0
985.209,17780300000.0
985.423,17867200000.0
985.851,18040900000.0
986.708,18390500000.0
986.742,18404600000.0
986.81,18432800000.0
986.947,18489200000.0
987.221,18602600000.0
987.767,18829200000.0
988.381,19090700000.0
989.608,19612100000.0
990.021,19789400000.0
990.847,20143100000.0
991.66,20500000000.0
993.287,21250000000.0
993.3,21256400000.0
993.35,21280200000.0
993.45,21328000000.0
993.65,21424200000.0
993.85,21520700000.0
994.05,21617600000.0
994.25,21715100000.0
994.45,21811800000.0
994.65,21908000000.0
994.85,22004200000.0
995.05,22100000000.0
995.25,22194500000.0
995.45,22289400000.0
995.65,22384700000.0
995.85,22480800000.0
996.05,22577600000.0
996.25,22674800000.0
996.45,22772900000.0
996.65,22872900000.0
997.05,23074500000.0
997.849,23488900000.0
999.448,24325200000.0
1000.0,24627300000.0
1001.103,25208700000.0
1001.912,25637500000.0
1003.53,26507600000.0
1003.824,26667900000.0
1004.412,26990100000.0
1005.553,27617600000.0
1007.282,28569100000.0
1009.011,29510700000.0
1010.74,30388300000.0
1012.469,31194000000.0
1014.199,31863700000.0
1015.928,32274300000.0
1016.792,32317800000.0
1017.657,32213000000.0
1018.521,31936700000.0
1019.386,31449600000.0
1020.25,30721600000.0
1021.115,29688900000.0
1021.547,29036400000.0
1021.979,28273800000.0
1022.412,27346600000.0
1022.844,26211300000.0
1023.276,24788300000.0
1023.708,22957700000.0
1023.925,21906900000.0
1024.141,20566000000.0
1024.357,19148600000.0
1024.573,17628000000.0
1024.624,17231000000.0
1024.674,16840800000.0
1024.724,16450500000.0
1024.774,16057800000.0
1024.824,15656800000.0
1024.874,15245500000.0
1024.924,14825900000.0
1024.974,14394000000.0
1025.006,14118200000.0
1025.069,13564300000.0
1025.196,12334700000.0
1025.259,11661100000.0
1025.322,10950100000.0
1025.438,9626570000.0
1025.492,9076420000.0
1025.546,8665900000.0
1025.596,8478060000.0
1025.646,8449010000.0
1025.654,8449980000.0
1025.681,8453990000.0
1025.708,8458040000.0
1025.715,8459090000.0
1025.72,8459840000.0
1025.722,8460150000.0
1025.729,8461210000.0
1025.736,8462240000.0
1025.763,8466310000.0
1025.79,8470400000.0
1025.844,8489030000.0
1025.871,8536360000.0
1025.898,8634470000.0
1025.925,8791750000.0
1025.952,9004050000.0
1025.979,9256910000.0
1026.005,9540350000.0
1026.056,10130100000.0
1026.106,10730300000.0
1026.156,11331200000.0
1026.206,11921800000.0
1026.256,12489900000.0
1026.306,13035300000.0
1026.356,13559300000.0
1026.406,14058400000.0
1026.438,14360800000.0
1026.501,14938800000.0
1026.628,16087100000.0
1026.87,18138400000.0
1027.112,20042600000.0
1027.355,21793300000.0
1027.597,23446700000.0
1027.839,24821700000.0
1028.082,26130800000.0
1028.324,27272900000.0
1028.566,28372100000.0
1028.6,28502200000.0
1028.668,28761900000.0
1028.803,29280400000.0
1029.073,30277800000.0
1029.614,31985200000.0
1030.155,33525500000.0
1030.329,33988900000.0
1030.676,34930300000.0
1031.37,36869100000.0
1032.058,38645400000.0
1032.745,40198300000.0
1033.433,41627500000.0
1033.787,42335200000.0
1034.495,43521400000.0
1035.203,44562700000.0
1035.516,45106300000.0
1036.142,46320600000.0
1037.246,48786900000.0
1038.35,51015900000.0
1038.975,52165800000.0
1040.225,54062300000.0
1040.704,54753400000.0
1041.662,56139800000.0
1042.433,57180700000.0
1043.975,59253800000.0
1044.162,59508900000.0
1044.536,60020000000.0
1045.284,61056900000.0
1045.892,61921600000.0
1047.108,63641900000.0
1047.621,64338400000.0
1048.647,65749100000.0
1048.81,65981700000.0
1049.135,66449600000.0
1049.786,67394800000.0
1050.0,67704100000.0
1050.427,68305500000.0
1051.282,69489600000.0
1052.991,71871900000.0
1055.0,74694400000.0
1059.019,80474300000.0
1060.0,82101300000.0
1061.963,85687300000.0
1065.0,91954600000.0
1068.037,97866400000.0
1070.0,101423000000.0
1073.926,108702000000.0
1075.0,110609000000.0
1077.148,114859000000.0
1078.574,118368000000.0
1080.0,122428000000.0
1081.538,126946000000.0
1083.077,131195000000.0
1086.155,139537000000.0
1086.538,140591000000.0
1087.304,142726000000.0
1088.835,147043000000.0
1090.0,150297000000.0
1092.33,157066000000.0
1095.0,165259000000.0
1097.67,173820000000.0
1100.0,181459000000.0
1104.661,197936000000.0
1105.0,199198000000.0
1105.679,201691000000.0
1107.036,206660000000.0
1109.751,216906000000.0
1110.0,217866000000.0
1110.498,219801000000.0
1111.494,223698000000.0
1113.486,231601000000.0
1115.0,237538000000.0
1118.027,249286000000.0
1120.0,257096000000.0
1123.945,272351000000.0
1125.0,276032000000.0
1127.109,282571000000.0
1130.0,289759000000.0
1131.154,292155000000.0
1132.308,293881000000.0
1134.616,296087000000.0
1136.154,296076000000.0
1137.692,295087000000.0
1140.0,291784000000.0
1142.308,287148000000.0
1145.0,280996000000.0
1147.692,274385000000.0
1150.0,269962000000.0
1154.615,263452000000.0
1159.231,258946000000.0
1163.846,255775000000.0
1165.769,254906000000.0
1169.614,254038000000.0
1173.459,254192000000.0
1177.305,255458000000.0
1181.15,258591000000.0
1181.538,259046000000.0
1182.314,260048000000.0
1183.866,262355000000.0
1185.628,265411000000.0
1189.151,272181000000.0
1189.718,273232000000.0
1190.851,275161000000.0
1191.767,276479000000.0
1193.599,278449000000.0
1193.816,278613000000.0
1194.251,278892000000.0
1195.12,279259000000.0
1195.866,279388000000.0
1197.358,279241000000.0
1197.915,279054000000.0
1199.028,278505000000.0
1199.964,277878000000.0
1201.835,276056000000.0
1202.014,275842000000.0
1202.371,275336000000.0
1203.086,274122000000.0
1204.063,271836000000.0
1205.04,268283000000.0
1206.016,263718000000.0
1206.113,263147000000.0
1206.306,262052000000.0
1206.693,259601000000.0
1207.467,253585000000.0
1208.162,247437000000.0
1208.857,240945000000.0
1209.553,232693000000.0
1210.211,224787000000.0
1210.869,216517000000.0
1211.527,206758000000.0
1212.261,197032000000.0
1212.995,187434000000.0
1213.652,180333000000.0
1214.31,174214000000.0
1214.822,168883000000.0
1214.95,166370000000.0
1215.078,162691000000.0
1215.207,156899000000.0
1215.335,148018000000.0
1215.385,144082000000.0
1215.435,140412000000.0
1215.463,138769000000.0
1215.519,136796000000.0
1215.547,136502000000.0
1215.575,136475000000.0
1215.591,136498000000.0
1215.623,136551000000.0
1215.655,136603000000.0
1215.663,136616000000.0
1215.67,136628000000.0
1215.679,136643000000.0
1215.687,136656000000.0
1215.719,136708000000.0
1215.751,136761000000.0
1215.815,137172000000.0
1215.847,138060000000.0
1215.879,139647000000.0
1215.929,143222000000.0
1215.979,147643000000.0
1216.007,150221000000.0
1216.063,155397000000.0
1216.174,164706000000.0
1216.285,172553000000.0
1216.397,179302000000.0
1216.508,185375000000.0
1216.52,185935000000.0
1216.57,188197000000.0
1216.62,190362000000.0
1216.67,192464000000.0
1216.72,194533000000.0
1216.77,196601000000.0
1216.82,198690000000.0
1216.87,200810000000.0
1216.92,202943000000.0
1216.97,205117000000.0
1217.021,207174000000.0
1217.032,207586000000.0
1217.082,209401000000.0
1217.132,211242000000.0
1217.182,213093000000.0
1217.232,215001000000.0
1217.282,216973000000.0
1217.332,219025000000.0
1217.382,221179000000.0
1217.432,223451000000.0
1217.482,225828000000.0
1217.532,227774000000.0
1217.583,229487000000.0
1217.633,231250000000.0
1217.683,233065000000.0
1217.733,234944000000.0
1217.783,236880000000.0
1217.833,238887000000.0
1217.883,240973000000.0
1217.933,243133000000.0
1217.983,245406000000.0
1218.033,247358000000.0
1218.083,249148000000.0
1218.133,251002000000.0
1218.183,252930000000.0
1218.233,254920000000.0
1218.283,256971000000.0
1218.333,259111000000.0
1218.383,261360000000.0
1218.433,263715000000.0
1218.483,266177000000.0
1218.533,268021000000.0
1218.583,269556000000.0
1218.634,271126000000.0
1218.684,272728000000.0
1218.734,274374000000.0
1218.784,276067000000.0
1218.834,277809000000.0
1218.884,279604000000.0
1218.934,281456000000.0
1218.984,283363000000.0
1219.034,285122000000.0
1219.081,286741000000.0
1219.175,290119000000.0
1219.364,297451000000.0
1219.741,311167000000.0
1220.118,323648000000.0
1220.495,333265000000.0
1221.131,350418000000.0
1221.767,364742000000.0
1222.404,373009000000.0
1222.792,380601000000.0
1223.18,388854000000.0
1223.956,403651000000.0
1224.593,413348000000.0
1225.229,421111000000.0
1225.865,427291000000.0
1226.501,432308000000.0
1227.279,437665000000.0
1228.834,448926000000.0
1229.328,452554000000.0
1230.316,460420000000.0
1231.378,468648000000.0
1233.427,484774000000.0
1235.476,500085000000.0
1237.526,514561000000.0
1239.575,527979000000.0
1241.625,541266000000.0
1245.725,569173000000.0
1249.825,598604000000.0
1250.812,605229000000.0
1252.786,620228000000.0
1256.733,650106000000.0
1260.0,677738000000.0
1263.267,709060000000.0
1265.0,725325000000.0
1268.466,755682000000.0
1270.0,770612000000.0
1273.068,800537000000.0
1275.0,818707000000.0
1278.863,860970000000.0
1280.0,873073000000.0
1282.273,896516000000.0
1285.0,921814000000.0
1287.727,948778000000.0
1290.0,972097000000.0
1294.547,1023150000000.0
1295.0,1028600000000.0
1295.906,1039630000000.0
1297.719,1061370000000.0
1300.0,1088100000000.0
1305.0,1143570000000.0
1310.0,1201250000000.0
1315.0,1261890000000.0
1320.0,1325230000000.0
1325.0,1391760000000.0
1330.0,1462060000000.0
1335.0,1535250000000.0
1340.0,1609810000000.0
1345.0,1685910000000.0
1350.0,1765160000000.0
1355.0,1848950000000.0
1360.0,1934260000000.0
1365.0,2022940000000.0
1370.0,2115890000000.0
1374.231,2195710000000.0
1378.462,2277330000000.0
1379.231,2292490000000.0
1380.0,2307750000000.0
1381.538,2338550000000.0
1384.614,2401210000000.0
1385.0,2409140000000.0
1385.771,2425080000000.0
1387.314,2457160000000.0
1390.0,2513710000000.0
1395.0,2621880000000.0
1400.0,2734000000000.0
1405.0,2850510000000.0
1410.0,2972100000000.0
1415.0,3097600000000.0
1420.0,3225910000000.0
1425.0,3358380000000.0
1430.0,3495320000000.0
1435.0,3634520000000.0
1440.0,3774640000000.0
1445.0,3917180000000.0
1450.0,4063210000000.0
1455.0,4212560000000.0
1460.0,4366250000000.0
1465.0,4524190000000.0
1470.0,4691200000000.0
1473.462,4811970000000.0
1476.923,4936980000000.0
1478.462,4994070000000.0
1480.0,5052280000000.0
1483.076,5172000000000.0
1485.0,5249180000000.0
1488.848,5407850000000.0
1490.0,5456080000000.0
1492.304,5552980000000.0
1495.0,5665790000000.0
1500.0,5871590000000.0
1505.0,6076450000000.0
1510.0,6291570000000.0
1515.0,6525210000000.0
1520.0,6771460000000.0
1525.0,7007350000000.0
1530.0,7209290000000.0
1535.0,7378120000000.0
1540.0,7538950000000.0
1545.0,7717190000000.0
