Wavelength,Flux
900.0,34735700.0
903.442,38116800.0
904.998,39741200.0
906.554,41428400.0
908.11,43180300.0
909.667,45000600.0
910.703,46250100.0
911.74,47532200.0
911.84,47657600.0
912.0,47858700.0
912.31,48250600.0
912.779,48849100.0
913.717,50066300.0
914.335,50883400.0
915.329,52222700.0
915.824,52901600.0
915.892,52995500.0
916.028,53191900.0
916.3,53564400.0
916.429,53742300.0
916.686,54147500.0
917.181,54804000.0
917.448,55324900.0
917.982,55987700.0
918.129,56169600.0
918.423,56998500.0
918.717,57765800.0
919.004,58170400.0
919.147,57948000.0
919.291,57885100.0
919.351,57975500.0
919.472,58164400.0
919.592,58910800.0
919.713,59667800.0
919.955,60610700.0
920.196,61272600.0
920.56,61678400.0
920.742,60764700.0
920.924,60377200.0
920.963,60438100.0
921.041,60560000.0
921.12,60816700.0
921.198,61724400.0
921.354,63508300.0
921.511,64576900.0
921.667,65312900.0
921.98,66448400.0
922.117,66864600.0
922.391,67510100.0
922.506,67632900.0
922.621,67544600.0
922.737,67039900.0
922.816,66297600.0
922.895,65156800.0
922.992,63847800.0
923.041,63753500.0
923.089,63831100.0
923.114,63872000.0
923.138,63911200.0
923.144,63921100.0
923.15,63930900.0
923.156,63940700.0
923.162,63950600.0
923.187,63991600.0
923.211,64030900.0
923.261,64115100.0
923.308,64370500.0
923.355,65063100.0
923.402,66067800.0
923.405,66134900.0
923.455,67211700.0
923.555,69021300.0
923.655,70309600.0
923.755,71211600.0
923.794,71504100.0
923.872,72025100.0
924.028,72888200.0
924.183,73593500.0
924.436,74598900.0
924.688,75511400.0
924.939,76321100.0
925.189,76971000.0
925.384,77238800.0
925.579,76982300.0
925.676,76452900.0
925.774,75394200.0
925.871,73619500.0
925.969,71097100.0
925.97,71067200.0
926.02,69800500.0
926.067,69087500.0
926.117,68963100.0
926.165,69046200.0
926.189,69088300.0
926.214,69132300.0
926.22,69142800.0
926.226,69153400.0
926.232,69163900.0
926.238,69174500.0
926.263,69218500.0
926.287,69260700.0
926.337,69350700.0
926.385,69650500.0
926.433,70583000.0
926.481,72040400.0
926.532,73710000.0
926.632,76695100.0
926.732,78916000.0
926.832,80516000.0
926.873,81041400.0
926.955,81920200.0
927.119,83263600.0
927.263,84185100.0
927.55,85664200.0
927.875,87085500.0
928.487,89473400.0
929.097,91575300.0
929.706,92776200.0
929.902,92444900.0
930.098,91019200.0
930.196,89533800.0
930.294,87244900.0
930.343,85732900.0
930.392,83984400.0
930.442,81997800.0
930.491,80069700.0
930.54,78390800.0
930.589,77452400.0
930.639,77322900.0
930.687,77415500.0
930.711,77462300.0
930.736,77511100.0
930.742,77522800.0
930.748,77534400.0
930.754,77546200.0
930.76,77557900.0
930.785,77606700.0
930.809,77653700.0
930.859,77752600.0
930.907,78074700.0
930.955,79188100.0
931.003,81059100.0
931.005,81145300.0
931.055,83401200.0
931.155,87844400.0
931.255,91439400.0
931.355,94153100.0
931.398,95100500.0
931.484,96685900.0
931.657,99000200.0
931.79,100293000.0
932.057,102272000.0
932.324,103805000.0
932.857,106391000.0
933.033,107175000.0
933.384,108709000.0
934.087,111658000.0
934.276,112432000.0
934.654,113957000.0
935.41,116856000.0
935.514,117226000.0
935.722,117926000.0
936.137,119056000.0
936.445,119397000.0
936.753,118668000.0
936.951,116946000.0
937.148,113283000.0
937.247,110258000.0
937.346,106212000.0
937.444,101102000.0
937.543,95743500.0
937.594,93485400.0
937.642,92348900.0
937.692,92205800.0
937.741,92316800.0
937.766,92373900.0
937.791,92431200.0
937.797,92444800.0
937.803,92458500.0
937.809,92472400.0
937.815,92486000.0
937.84,92543200.0
937.865,92600500.0
937.915,92716100.0
937.964,93088500.0
938.013,94504000.0
938.062,96942300.0
938.111,99829900.0
938.16,102870000.0
938.258,108681000.0
938.356,113535000.0
938.454,117444000.0
938.458,117580000.0
938.508,119228000.0
938.608,122007000.0
938.708,124245000.0
938.808,126072000.0
938.853,126779000.0
938.943,128040000.0
939.124,130088000.0
939.484,133200000.0
939.845,135614000.0
940.206,137705000.0
940.434,138949000.0
940.89,141349000.0
941.801,145961000.0
942.015,147024000.0
942.443,149141000.0
942.894,151379000.0
943.773,155712000.0
944.625,159887000.0
945.478,164045000.0
947.079,171164000.0
947.479,172395000.0
947.88,172875000.0
948.28,171655000.0
948.68,167004000.0
948.88,162276000.0
949.08,154512000.0
949.18,149199000.0
949.28,142710000.0
949.38,135220000.0
949.48,127887000.0
949.53,125011000.0
949.58,123514000.0
949.63,123394000.0
949.68,123542000.0
949.705,123616000.0
949.73,123690000.0
949.737,123711000.0
949.743,123729000.0
949.749,123747000.0
949.755,123765000.0
949.781,123843000.0
949.806,123917000.0
949.856,124067000.0
949.906,124487000.0
949.956,126295000.0
950.006,129505000.0
950.056,133398000.0
950.106,137593000.0
950.206,145930000.0
950.306,153328000.0
950.406,159618000.0
950.456,162417000.0
950.556,167310000.0
950.656,171462000.0
950.756,174957000.0
950.806,176496000.0
950.906,179309000.0
951.107,183985000.0
951.307,187763000.0
951.508,190839000.0
951.708,193336000.0
952.109,197436000.0
952.407,200025000.0
953.003,204443000.0
954.008,211276000.0
955.609,221648000.0
957.211,232187000.0
958.812,243045000.0
960.413,254166000.0
960.776,256763000.0
961.14,259381000.0
961.376,261088000.0
961.611,262784000.0
962.081,266199000.0
963.021,273159000.0
963.251,274884000.0
963.71,278366000.0
964.629,285439000.0
964.89,287453000.0
965.412,291522000.0
966.456,299817000.0
966.53,300414000.0
966.678,301610000.0
966.975,304015000.0
967.567,308876000.0
968.169,313881000.0
969.372,324089000.0
969.809,327828000.0
970.683,335377000.0
971.448,341765000.0
971.858,344481000.0
972.268,346379000.0
972.37,346754000.0
972.473,347133000.0
972.499,347229000.0
972.524,347322000.0
972.531,347348000.0
972.537,347369000.0
972.543,347392000.0
972.55,347418000.0
972.575,347511000.0
972.601,347607000.0
972.653,347801000.0
972.703,348114000.0
972.803,348779000.0
972.806,348800000.0
972.856,349132000.0
972.956,349797000.0
973.156,351113000.0
973.216,351504000.0
973.336,352355000.0
973.576,354944000.0
973.626,355486000.0
973.726,356568000.0
973.926,358744000.0
974.326,363442000.0
975.126,372997000.0
975.265,374672000.0
975.544,377805000.0
976.101,383999000.0
976.905,392691000.0
978.512,410532000.0
978.544,410888000.0
978.608,411603000.0
978.735,412995000.0
978.989,415761000.0
979.498,421310000.0
980.184,428911000.0
981.556,444256000.0
981.823,447270000.0
982.357,453352000.0
983.424,465734000.0
983.463,466189000.0
983.54,467097000.0
983.694,468916000.0
984.003,472582000.0
984.62,480002000.0
985.102,485874000.0
986.065,497841000.0
986.742,506411000.0
988.095,523714000.0
988.381,527384000.0
988.953,534798000.0
990.021,548942000.0
991.66,571346000.0
993.3,594755000.0
996.58,644450000.0
996.65,645553000.0
996.79,647764000.0
997.07,652210000.0
997.63,661175000.0
998.75,679263000.0
1000.0,700033000.0
1001.912,732703000.0
1003.824,766737000.0
1005.553,798653000.0
1007.282,831654000.0
1009.011,865888000.0
1010.74,900986000.0
1012.469,937181000.0
1014.199,973794000.0
1015.928,1010000000.0
1017.657,1042970000.0
1019.386,1069930000.0
1020.25,1077920000.0
1021.115,1079100000.0
1021.979,1068670000.0
1022.844,1039830000.0
1023.276,1017860000.0
1023.708,989249000.0
1024.141,951455000.0
1024.573,904748000.0
1024.624,898078000.0
1024.674,891594000.0
1024.724,884905000.0
1024.774,877886000.0
1024.824,870635000.0
1024.874,862847000.0
1024.924,854359000.0
1024.974,845450000.0
1025.006,839498000.0
1025.069,826900000.0
1025.196,795843000.0
1025.259,776427000.0
1025.322,754466000.0
1025.438,708422000.0
1025.546,670535000.0
1025.6,662527000.0
1025.654,661780000.0
1025.681,662136000.0
1025.708,662499000.0
1025.715,662591000.0
1025.72,662659000.0
1025.722,662687000.0
1025.729,662780000.0
1025.736,662874000.0
1025.763,663237000.0
1025.79,663601000.0
1025.844,664888000.0
1025.898,671727000.0
1025.925,678557000.0
1025.952,687571000.0
1026.005,709432000.0
1026.056,731762000.0
1026.106,753842000.0
1026.156,774424000.0
1026.206,793388000.0
1026.256,810812000.0
1026.306,826386000.0
1026.356,840584000.0
1026.406,853693000.0
1026.438,861324000.0
1026.501,875300000.0
1026.628,901350000.0
1026.87,943580000.0
1027.112,981113000.0
1027.597,1049200000.0
1027.839,1078000000.0
1028.082,1106100000.0
1028.566,1156990000.0
1028.6,1160110000.0
1028.668,1166360000.0
1028.803,1178970000.0
1029.073,1203820000.0
1029.614,1247520000.0
1030.329,1297950000.0
1031.044,1344200000.0
1032.058,1402680000.0
1033.072,1451270000.0
1033.787,1482610000.0
1035.216,1538610000.0
1035.516,1550710000.0
1036.116,1575770000.0
1037.246,1625100000.0
1038.975,1697600000.0
1040.704,1765950000.0
1042.433,1835710000.0
1044.162,1905910000.0
1045.892,1978820000.0
1047.621,2054390000.0
1048.81,2107200000.0
1050.0,2160920000.0
1052.38,2272040000.0
1055.0,2400240000.0
1057.62,2532960000.0
1060.0,2660750000.0
1064.76,2934490000.0
1065.0,2948940000.0
1065.48,2978030000.0
1066.441,3037070000.0
1068.363,3157430000.0
1070.0,3261320000.0
1073.273,3480190000.0
1075.0,3601560000.0
1078.453,3852230000.0
1080.0,3971920000.0
1081.538,4095060000.0
1083.077,4220820000.0
1086.155,4477930000.0
1086.538,4510950000.0
1087.304,4577810000.0
1088.835,4714770000.0
1090.0,4821930000.0
1092.33,5039730000.0
1095.0,5299370000.0
1097.67,5572900000.0
1100.0,5822530000.0
1104.661,6343910000.0
1105.0,6383710000.0
1105.679,6463830000.0
1107.036,6627280000.0
1109.751,6962060000.0
1110.0,6992940000.0
1110.498,7055360000.0
1111.494,7181020000.0
1113.486,7437630000.0
1115.0,7636810000.0
1118.027,8038380000.0
1120.0,8301070000.0
1123.945,8829960000.0
1125.0,8970880000.0
1127.109,9241300000.0
1130.0,9588370000.0
1131.154,9719630000.0
1132.308,9842800000.0
1134.616,10076100000.0
1136.154,10212900000.0
1139.23,10455800000.0
1140.0,10502600000.0
1141.539,10599500000.0
1144.617,10782700000.0
1145.0,10808200000.0
1145.766,10846000000.0
1147.297,10938500000.0
1150.0,11105600000.0
1152.703,11282700000.0
1155.406,11455800000.0
1158.109,11622700000.0
1160.812,11797800000.0
1163.516,11963000000.0
1165.769,12112000000.0
1170.276,12454000000.0
1174.783,12879900000.0
1179.29,13401400000.0
1181.538,13708000000.0
1185.628,14349900000.0
1189.718,15065500000.0
1191.767,15417000000.0
1193.816,15748000000.0
1195.866,16053900000.0
1197.915,16343300000.0
1199.964,16627900000.0
1202.014,16896900000.0
1204.063,17131300000.0
1206.113,17253900000.0
1207.137,17246400000.0
1208.162,17183300000.0
1208.212,17179400000.0
1208.262,17175800000.0
1208.312,17172300000.0
1208.362,17169500000.0
1208.412,17166800000.0
1208.462,17164300000.0
1208.512,17160900000.0
1208.562,17154600000.0
1208.612,17148500000.0
1208.662,17142800000.0
1208.713,17137300000.0
1208.763,17132100000.0
1208.813,17127100000.0
1208.863,17121800000.0
1208.913,17116600000.0
1208.963,17111600000.0
1209.013,17105100000.0
1209.063,17093700000.0
1209.113,17083000000.0
1209.163,17073000000.0
1209.213,17063300000.0
1209.263,17054000000.0
1209.313,17045100000.0
1209.363,17036500000.0
1209.413,17028200000.0
1209.463,17020300000.0
1209.513,17011600000.0
1209.563,17000200000.0
1209.613,16989400000.0
1209.663,16979000000.0
1209.714,16968900000.0
1209.764,16959300000.0
1209.814,16949700000.0
1209.864,16940500000.0
1209.914,16932100000.0
1209.964,16923900000.0
1210.014,16915300000.0
1210.064,16905400000.0
1210.114,16895900000.0
1210.164,16886700000.0
1210.211,16878400000.0
1210.305,16862700000.0
1210.494,16834200000.0
1210.871,16731800000.0
1211.625,16513300000.0
1212.261,16354700000.0
1213.534,16129400000.0
1214.31,16108800000.0
1214.822,16146100000.0
1215.335,16090000000.0
1215.463,15962900000.0
1215.591,15915500000.0
1215.623,15922500000.0
1215.655,15929500000.0
1215.663,15931300000.0
1215.67,15932800000.0
1215.679,15934800000.0
1215.687,15936600000.0
1215.719,15943600000.0
1215.751,15950600000.0
1215.815,15979500000.0
1215.879,16069000000.0
1216.007,16311900000.0
1216.263,16686900000.0
1216.519,17025300000.0
1216.52,17026700000.0
1216.57,17081800000.0
1216.62,17138200000.0
1216.67,17195500000.0
1216.72,17254000000.0
1216.77,17313700000.0
1216.82,17376700000.0
1216.87,17443800000.0
1216.92,17514800000.0
1216.97,17589700000.0
1217.021,17658800000.0
1217.032,17671900000.0
1217.082,17730100000.0
1217.132,17790100000.0
1217.182,17853500000.0
1217.232,17920200000.0
1217.282,17989000000.0
1217.332,18060800000.0
1217.382,18136000000.0
1217.432,18214200000.0
1217.482,18296000000.0
1217.532,18362300000.0
1217.583,18419900000.0
1217.633,18480400000.0
1217.683,18542400000.0
1217.733,18607100000.0
1217.783,18673900000.0
1217.833,18742900000.0
1217.883,18814500000.0
1217.933,18888900000.0
1217.983,18966300000.0
1218.033,19032600000.0
1218.083,19093100000.0
1218.133,19155500000.0
1218.183,19219800000.0
1218.233,19286100000.0
1218.283,19354700000.0
1218.333,19426200000.0
1218.383,19501000000.0
1218.433,19577100000.0
1218.483,19655700000.0
1218.533,19715300000.0
1218.583,19765200000.0
1218.634,19816900000.0
1218.684,19869900000.0
1218.734,19924000000.0
1218.784,19979200000.0
1218.834,20034700000.0
1218.884,20091600000.0
1218.934,20149600000.0
1218.984,20209200000.0
1219.034,20265600000.0
1219.081,20317100000.0
1219.175,20423400000.0
1219.364,20652700000.0
1219.741,21080000000.0
1220.495,21762300000.0
1221.131,22319200000.0
1221.767,22802000000.0
1222.404,23121200000.0
1223.18,23708400000.0
1223.956,24283900000.0
1225.229,25046100000.0
1226.502,25617100000.0
1227.279,25919900000.0
1228.834,26559300000.0
1229.328,26768800000.0
1230.316,27213800000.0
1231.378,27684500000.0
1233.427,28604000000.0
1235.476,29512100000.0
1237.526,30413700000.0
1239.575,31294900000.0
1241.625,32185900000.0
1245.725,34054300000.0
1249.825,36031700000.0
1250.812,36499100000.0
1252.786,37507700000.0
1256.733,39561800000.0
1260.0,41413300000.0
1263.267,43451100000.0
1265.0,44535800000.0
1268.466,46653400000.0
1270.0,47664700000.0
1273.068,49718000000.0
1275.0,51001400000.0
1278.863,53860000000.0
1280.0,54698800000.0
1282.273,56360500000.0
1285.0,58265000000.0
1287.727,60269200000.0
1290.0,61999800000.0
1294.547,65717600000.0
1295.0,66108600000.0
1295.906,66897500000.0
1297.719,68473200000.0
1300.0,70453000000.0
1305.0,74747700000.0
1310.0,79259400000.0
1315.0,84026300000.0
1320.0,89043600000.0
1325.0,94340100000.0
1330.0,99949500000.0
1335.0,105839000000.0
1340.0,111949000000.0
1345.0,118290000000.0
1350.0,124943000000.0
1355.0,131978000000.0
1360.0,139266000000.0
1365.0,146900000000.0
1370.0,154927000000.0
1374.231,161935000000.0
1378.462,169178000000.0
1379.231,170526000000.0
1380.0,171883000000.0
1381.538,174629000000.0
1384.614,180232000000.0
1385.0,180944000000.0
1385.771,182376000000.0
1387.314,185267000000.0
1390.0,190384000000.0
1395.0,200229000000.0
1400.0,210499000000.0
1405.0,221226000000.0
1410.0,232462000000.0
1415.0,244160000000.0
1420.0,256277000000.0
1425.0,268888000000.0
1430.0,282016000000.0
1435.0,295564000000.0
1440.0,309475000000.0
1445.0,323832000000.0
1450.0,338697000000.0
1455.0,354074000000.0
1460.0,370024000000.0
1465.0,386554000000.0
1470.0,403925000000.0
1473.462,416443000000.0
1476.923,429367000000.0
1478.462,435254000000.0
1480.0,441235000000.0
1483.076,453485000000.0
1485.0,461346000000.0
1488.848,477478000000.0
1490.0,482394000000.0
1492.304,492317000000.0
1495.0,504021000000.0
1500.0,525907000000.0
1505.0,548216000000.0
1510.0,571531000000.0
1515.0,596283000000.0
1520.0,622182000000.0
1525.0,648089000000.0
1530.0,672812000000.0
1535.0,696323000000.0
1540.0,719833000000.0
1545.0,744719000000.0
1550.0,771692000000.0
1555.0,800705000000.0
1560.0,831044000000.0
1565.0,861643000000.0
1570.0,891716000000.0
1572.692,907676000000.0
1575.385,923563000000.0
1577.692,937261000000.0
1580.0,951143000000.0
1584.616,979837000000.0
1585.0,982311000000.0
1585.768,987277000000.0
1587.304,997370000000.0
1590.0,1015650000000.0
1595.0,1051760000000.0
1600.0,1091050000000.0
1605.0,1133850000000.0
1610.0,1180440000000.0
1615.0,1231100000000.0
1620.0,1286140000000.0
1625.0,1345860000000.0
1630.0,1410550000000.0
1635.0,1480370000000.0
1640.0,1555590000000.0
1645.0,1636560000000.0
1650.0,1723760000000.0
1655.0,1817310000000.0
1660.0,1918690000000.0
1665.0,2028900000000.0
1670.0,2149970000000.0
1671.923,2199500000000.0
1673.846,2252020000000.0
1676.923,2344740000000.0
1680.0,2448260000000.0
1682.5,2539950000000.0
1685.0,2646670000000.0
1687.5,2766570000000.0
1690.0,2908030000000.0
1692.5,3067180000000.0
1695.0,3261510000000.0
1697.5,3484010000000.0
1700.0,3762580000000.0
1702.5,4076990000000.0
1705.0,4472070000000.0
1706.25,4688910000000.0
1707.5,4916770000000.0
1708.75,5178320000000.0
1710.0,5482070000000.0
1712.5,6117360000000.0
1713.75,6483370000000.0
1715.0,6902980000000.0
1717.5,7770340000000.0
1718.75,8272120000000.0
1720.0,8838180000000.0
1722.5,9999010000000.0
1723.75,10662000000000.0
1725.0,11411400000000.0
1727.5,12917300000000.0
1728.75,13762200000000.0
1730.0,14702800000000.0
1732.5,16567600000000.0
1733.75,17598200000000.0
1735.0,18739200000000.0
1737.5,20975500000000.0
1738.75,22195000000000.0
1740.0,23530100000000.0
1742.5,26115100000000.0
1743.75,27508500000000.0
1745.0,29012900000000.0
1747.5,31894200000000.0
1750.0,35065000000000.0
1752.5,38185700000000.0
1757.5,44775700000000.0
1761.154,49706100000000.0
1768.462,59237000000000.0
1772.308,64150800000000.0
1780.0,73539000000000.0
1783.845,77870900000000.0
1787.691,82065200000000.0
1795.383,89970100000000.0
1803.075,97042400000000.0
1810.766,103629000000000.0
1821.539,111980000000000.0
1832.312,119656000000000.0
1843.084,126857000000000.0
1853.857,133733000000000.0
1864.63,140398000000000.0
1870.769,144132000000000.0
1883.048,151482000000000.0
1895.326,158756000000000.0
1907.605,165954000000000.0
1919.883,173127000000000.0
1920.0,173195000000000.0
1920.5,173488000000000.0
1921.5,174067000000000.0
1923.5,175230000000000.0
1927.5,177558000000000.0
1935.5,182213000000000.0
1951.5,191495000000000.0
1967.5,200740000000000.0
1969.231,201739000000000.0
1972.693,203730000000000.0
1979.617,207712000000000.0
1993.464,215644000000000.0
2007.312,223490000000000.0
2018.462,229825000000000.0
2029.612,236101000000000.0
2040.762,242419000000000.0
2051.912,248720000000000.0
2063.062,255073000000000.0
2067.692,257710000000000.0
2076.952,263001000000000.0
2095.471,273605000000000.0
2113.991,284183000000000.0
2116.923,285861000000000.0
2122.788,289182000000000.0
2134.517,295746000000000.0
2146.247,302236000000000.0
2157.976,308641000000000.0
2166.154,312992000000000.0
2182.51,321536000000000.0
2198.865,329795000000000.0
2215.22,337887000000000.0
2215.385,337968000000000.0
2215.885,338215000000000.0
2216.885,338707000000000.0
2218.885,339691000000000.0
2222.885,341656000000000.0
2230.885,345582000000000.0
2246.885,353461000000000.0
2262.885,361397000000000.0
2264.615,362265000000000.0
2268.075,363998000000000.0
2274.995,367460000000000.0
2288.835,374475000000000.0
2302.675,381584000000000.0
2313.846,387483000000000.0
2325.017,393453000000000.0
2336.189,399561000000000.0
2347.36,405788000000000.0
2358.531,412091000000000.0
2363.077,414673000000000.0
2372.168,419856000000000.0
2390.349,430161000000000.0
2408.531,440271000000000.0
2412.307,442332000000000.0
2419.859,446437000000000.0
2434.962,454294000000000.0
2450.066,461868000000000.0
2461.538,467466000000000.0
2473.01,472796000000000.0
2484.483,478025000000000.0
2495.955,483088000000000.0
2507.428,488026000000000.0
2510.769,489439000000000.0
2517.452,492246000000000.0
2530.817,497724000000000.0
2544.182,503095000000000.0
2557.547,508346000000000.0
2560.0,509303000000000.0
2564.905,511184000000000.0
2574.716,514917000000000.0
2594.337,522245000000000.0
2613.958,529396000000000.0
2633.579,536381000000000.0
2653.2,543210000000000.0
2658.461,545016000000000.0
2668.982,548567000000000.0
2679.504,552078000000000.0
2690.025,555578000000000.0
2700.547,559043000000000.0
2711.068,562414000000000.0
2721.59,565813000000000.0
2732.111,569102000000000.0
2742.633,572353000000000.0
2753.154,575562000000000.0
2756.923,576702000000000.0
2764.461,578949000000000.0
2779.536,583381000000000.0
2794.611,587729000000000.0
2809.686,591990000000000.0
2824.761,596167000000000.0
2839.837,600260000000000.0
2854.912,604269000000000.0
2855.385,604394000000000.0
