Wavelength,Flux
900.0,14646400.0
903.442,16125000.0
904.998,16837000.0
906.554,17577700.0
908.11,18348000.0
909.667,19149500.0
910.703,19700300.0
911.74,20266100.0
911.84,20321500.0
912.0,20410300.0
912.31,20583400.0
912.779,20847900.0
913.717,21386000.0
914.335,21747500.0
915.329,22340600.0
915.824,22641400.0
915.892,22683000.0
916.028,22774900.0
916.3,22937200.0
916.429,23014100.0
916.686,23218500.0
917.181,23485100.0
917.448,23784200.0
917.715,24038300.0
917.922,24096700.0
918.129,24091400.0
918.336,24413400.0
918.543,24809700.0
918.75,25044200.0
918.957,25195600.0
919.004,25204500.0
919.098,25141400.0
919.285,24850100.0
919.351,24893900.0
919.417,24937700.0
919.482,25024400.0
919.548,25327200.0
919.68,25846000.0
919.811,26145200.0
919.943,26362600.0
920.206,26694000.0
920.56,26894800.0
920.737,26437900.0
920.914,25956100.0
920.963,25989700.0
921.013,26024400.0
921.113,26247200.0
921.163,26621800.0
921.213,27003200.0
921.313,27571800.0
921.413,27932000.0
921.513,28184400.0
921.713,28558300.0
921.913,28861000.0
922.113,29125600.0
922.117,29130600.0
922.167,29191100.0
922.267,29303500.0
922.467,29473500.0
922.506,29491900.0
922.584,29502500.0
922.74,29321700.0
922.818,29042300.0
922.895,28541600.0
922.992,27676200.0
923.041,27473600.0
923.089,27502100.0
923.114,27520400.0
923.138,27537900.0
923.144,27542300.0
923.15,27546800.0
923.156,27551100.0
923.162,27555500.0
923.187,27573800.0
923.211,27591300.0
923.261,27636600.0
923.308,27915100.0
923.358,28454700.0
923.405,29001000.0
923.499,29849400.0
923.593,30424300.0
923.687,30801200.0
923.781,31080100.0
923.794,31113700.0
923.844,31239900.0
923.944,31459400.0
924.144,31823100.0
924.183,31887500.0
924.261,32011800.0
924.417,32248000.0
924.436,32275800.0
924.486,32348400.0
924.586,32490500.0
924.688,32631000.0
924.892,32898600.0
924.939,32956800.0
925.033,33068600.0
925.189,33236800.0
925.501,33417400.0
925.579,33388500.0
925.734,33101700.0
925.812,32749800.0
925.89,32192400.0
925.93,31776900.0
925.97,31290700.0
926.05,30246600.0
926.067,30067400.0
926.117,29800000.0
926.165,29832400.0
926.189,29851300.0
926.214,29871000.0
926.22,29875600.0
926.226,29880400.0
926.232,29885100.0
926.238,29889800.0
926.263,29909500.0
926.287,29928400.0
926.337,29975800.0
926.385,30323200.0
926.435,31017300.0
926.482,31752200.0
926.576,33040000.0
926.623,33514900.0
926.67,33929600.0
926.764,34547900.0
926.858,34997400.0
926.873,35060000.0
926.923,35249000.0
927.023,35566800.0
927.223,36060000.0
927.263,36145700.0
927.343,36307200.0
927.503,36603300.0
927.824,37140200.0
927.875,37222200.0
927.978,37384800.0
928.184,37705000.0
928.487,38161300.0
929.094,39021200.0
929.097,39025700.0
929.147,39091700.0
929.247,39218600.0
929.447,39445300.0
929.647,39609300.0
929.706,39637800.0
929.824,39652500.0
930.06,39383700.0
930.098,39271400.0
930.174,38965900.0
930.25,38490500.0
930.325,37826900.0
930.401,36901300.0
930.477,35698000.0
930.491,35450800.0
930.541,34557800.0
930.589,33856100.0
930.637,33546700.0
930.685,33583400.0
930.687,33585300.0
930.711,33606200.0
930.736,33628100.0
930.742,33633400.0
930.748,33638600.0
930.754,33643900.0
930.76,33649200.0
930.785,33671100.0
930.809,33692200.0
930.859,33741400.0
930.907,34138900.0
930.957,34975600.0
931.005,35947700.0
931.101,37735200.0
931.197,39124700.0
931.293,40181300.0
931.398,41015100.0
931.503,41640200.0
931.608,42127300.0
931.79,42760600.0
931.972,43287600.0
932.337,44144700.0
933.033,45531200.0
933.729,46808700.0
934.276,47814200.0
935.37,49744700.0
935.514,49984400.0
935.802,50433400.0
936.377,51052500.0
936.565,51072400.0
936.753,50876800.0
936.941,50321700.0
937.129,49169300.0
937.148,49011300.0
937.198,48548300.0
937.298,47349200.0
937.398,45738200.0
937.498,43731600.0
937.544,42660900.0
937.636,40722800.0
937.642,40642100.0
937.692,40254900.0
937.741,40302200.0
937.766,40328000.0
937.791,40354000.0
937.797,40360100.0
937.803,40366300.0
937.809,40372600.0
937.815,40378800.0
937.84,40404600.0
937.865,40430500.0
937.915,40486400.0
937.964,40980000.0
938.014,42005000.0
938.062,43236100.0
938.112,44527900.0
938.212,46810900.0
938.312,48748900.0
938.412,50302500.0
938.458,50918600.0
938.55,51995700.0
938.734,53696900.0
938.853,54531300.0
939.09,55799400.0
939.327,56752500.0
939.564,57521500.0
940.038,58818900.0
940.434,59792600.0
941.225,61589500.0
942.015,63334200.0
942.894,65311200.0
943.773,67286700.0
944.625,69195300.0
945.478,71119600.0
947.079,74451000.0
947.479,75027500.0
947.88,75255900.0
948.08,75144500.0
948.28,74763800.0
948.48,74040800.0
948.68,72702000.0
948.88,70556700.0
949.08,67400600.0
949.18,65414200.0
949.28,63111400.0
949.38,60505000.0
949.48,57541100.0
949.53,56058400.0
949.58,54908000.0
949.605,54526600.0
949.63,54432800.0
949.68,54498800.0
949.705,54532800.0
949.73,54566700.0
949.737,54576400.0
949.743,54584500.0
949.749,54592700.0
949.755,54600800.0
949.781,54636200.0
949.806,54670300.0
949.856,54740300.0
949.906,55356900.0
949.956,56656000.0
950.006,58298400.0
950.056,60001600.0
950.156,63122600.0
950.256,65974200.0
950.356,68525300.0
950.406,69706400.0
950.506,71866300.0
950.707,75548500.0
950.806,77037000.0
951.005,79466100.0
951.203,81315500.0
951.402,82791300.0
951.8,85099400.0
952.197,86770200.0
952.407,87544200.0
952.827,88967800.0
953.666,91644000.0
954.008,92693900.0
954.692,94765900.0
955.609,97542900.0
957.211,102207000.0
958.812,107037000.0
960.413,112108000.0
960.776,113295000.0
961.14,114478000.0
961.376,115228000.0
961.611,115974000.0
962.081,117481000.0
963.021,120559000.0
963.251,121324000.0
963.71,122865000.0
964.629,125999000.0
964.89,126906000.0
965.412,128740000.0
966.456,132497000.0
966.53,132768000.0
966.678,133311000.0
966.975,134408000.0
967.567,136576000.0
968.169,138780000.0
969.372,143285000.0
969.809,144943000.0
970.683,148299000.0
971.448,151200000.0
971.858,152453000.0
972.268,153319000.0
972.37,153477000.0
972.473,153627000.0
972.499,153665000.0
972.524,153701000.0
972.531,153711000.0
972.537,153720000.0
972.543,153729000.0
972.55,153739000.0
972.575,153775000.0
972.601,153814000.0
972.653,153890000.0
972.703,154026000.0
972.803,154319000.0
972.806,154327000.0
972.856,154475000.0
972.956,154769000.0
973.156,155361000.0
973.216,155539000.0
973.336,155928000.0
973.576,157103000.0
973.626,157349000.0
973.726,157845000.0
973.926,158841000.0
974.326,160992000.0
975.126,165349000.0
975.265,166109000.0
975.544,167540000.0
976.101,170303000.0
976.905,174143000.0
978.512,182020000.0
978.544,182178000.0
978.608,182495000.0
978.735,183125000.0
978.989,184387000.0
979.498,186936000.0
980.184,190430000.0
981.556,197529000.0
981.823,198927000.0
982.357,201752000.0
983.424,207394000.0
983.463,207600000.0
983.54,208015000.0
983.694,208845000.0
984.003,210519000.0
984.62,213915000.0
985.102,216606000.0
986.065,222036000.0
986.742,225930000.0
988.095,233956000.0
988.381,235679000.0
988.953,239137000.0
990.021,245750000.0
991.66,256256000.0
993.3,267169000.0
996.58,290354000.0
996.65,290870000.0
996.79,291905000.0
997.07,293985000.0
997.63,298196000.0
998.75,306742000.0
1000.0,316522000.0
1001.912,332070000.0
1003.824,348127000.0
1005.553,363386000.0
1007.282,378976000.0
1009.011,395281000.0
1010.74,411974000.0
1012.469,429043000.0
1014.199,445924000.0
1015.928,462386000.0
1017.657,478252000.0
1019.386,490034000.0
1020.25,493053000.0
1021.115,492543000.0
1021.979,486609000.0
1022.844,472938000.0
1023.276,464141000.0
1023.708,453030000.0
1024.141,437763000.0
1024.573,417903000.0
1024.624,414845000.0
1024.674,411717000.0
1024.724,408616000.0
1024.774,405331000.0
1024.824,401842000.0
1024.874,398436000.0
1024.924,394686000.0
1024.974,390551000.0
1025.006,387963000.0
1025.069,382611000.0
1025.196,370236000.0
1025.317,355371000.0
1025.438,337345000.0
1025.546,318696000.0
1025.6,311882000.0
1025.654,310190000.0
1025.681,310354000.0
1025.708,310530000.0
1025.715,310575000.0
1025.72,310608000.0
1025.722,310621000.0
1025.729,310666000.0
1025.736,310712000.0
1025.763,310888000.0
1025.79,311066000.0
1025.844,312342000.0
1025.871,314763000.0
1025.898,318467000.0
1025.952,328104000.0
1026.005,338486000.0
1026.056,347510000.0
1026.106,355762000.0
1026.156,363605000.0
1026.206,370920000.0
1026.256,377663000.0
1026.306,383969000.0
1026.356,389839000.0
1026.406,395207000.0
1026.438,398538000.0
1026.501,404803000.0
1026.628,416604000.0
1026.87,436608000.0
1027.112,453451000.0
1027.355,468388000.0
1027.839,494962000.0
1028.324,517510000.0
1028.6,529687000.0
1029.152,552689000.0
1029.704,573258000.0
1030.257,592003000.0
1030.329,594298000.0
1030.474,598912000.0
1030.763,608059000.0
1031.341,625912000.0
1032.058,645762000.0
1032.775,662824000.0
1033.493,678588000.0
1033.787,684809000.0
1034.376,696282000.0
1035.516,717592000.0
1037.246,753416000.0
1038.975,788081000.0
1040.704,821354000.0
1042.433,855457000.0
1044.162,890124000.0
1045.892,924631000.0
1047.621,960572000.0
1048.81,986164000.0
1050.0,1012240000.0
1052.38,1065040000.0
1055.0,1126830000.0
1057.62,1190900000.0
1060.0,1252210000.0
1064.76,1385750000.0
1065.0,1392750000.0
1065.48,1406850000.0
1066.441,1435620000.0
1068.363,1494730000.0
1070.0,1546410000.0
1073.273,1653420000.0
1075.0,1713330000.0
1078.453,1838940000.0
1080.0,1898330000.0
1081.538,1959820000.0
1083.077,2023350000.0
1086.155,2154180000.0
1086.538,2170740000.0
1087.304,2204330000.0
1088.835,2273450000.0
1090.0,2327850000.0
1092.33,2440890000.0
1095.0,2573590000.0
1097.67,2713230000.0
1100.0,2843080000.0
1104.661,3113970000.0
1105.0,3134320000.0
1105.679,3175260000.0
1107.036,3258250000.0
1109.751,3426900000.0
1110.0,3442870000.0
1110.498,3475150000.0
1111.494,3539150000.0
1113.486,3665760000.0
1115.0,3764910000.0
1118.027,3966810000.0
1120.0,4097820000.0
1123.945,4336070000.0
1125.0,4396880000.0
1127.109,4504560000.0
1130.0,4635020000.0
1131.154,4683710000.0
1132.308,4724750000.0
1134.616,4801410000.0
1136.154,4846370000.0
1139.23,4936500000.0
1140.0,4956170000.0
1141.539,5002640000.0
1144.617,5106090000.0
1145.0,5121230000.0
1145.766,5146620000.0
1147.297,5205860000.0
1150.0,5316110000.0
1152.703,5432810000.0
1155.406,5549440000.0
1158.109,5661720000.0
1160.812,5776660000.0
1163.516,5887330000.0
1165.769,5983970000.0
1170.276,6200210000.0
1174.783,6461020000.0
1179.29,6752830000.0
1181.538,6918770000.0
1185.628,7264290000.0
1189.718,7644980000.0
1191.767,7834460000.0
1193.816,8013860000.0
1195.866,8176250000.0
1197.915,8328470000.0
1199.964,8476270000.0
1202.014,8619270000.0
1204.063,8743650000.0
1206.113,8822570000.0
1208.162,8837150000.0
1210.211,8786460000.0
1210.261,8784820000.0
1210.311,8783350000.0
1210.361,8782020000.0
1210.411,8780800000.0
1210.461,8779810000.0
1210.511,8778200000.0
1210.561,8773960000.0
1210.611,8769890000.0
1210.661,8766040000.0
1210.712,8762420000.0
1210.762,8759010000.0
1210.812,8755810000.0
1210.862,8752800000.0
1210.912,8750000000.0
1210.962,8747320000.0
1211.012,8743920000.0
1211.062,8737940000.0
1211.112,8732270000.0
1211.162,8727150000.0
1211.212,8722890000.0
1211.262,8718840000.0
1211.312,8715030000.0
1211.362,8711290000.0
1211.412,8707720000.0
1211.462,8704300000.0
1211.512,8701090000.0
1211.562,8697790000.0
1211.612,8694680000.0
1211.662,8691770000.0
1211.713,8689040000.0
1211.763,8686490000.0
1211.813,8684090000.0
1211.863,8681860000.0
1211.913,8679790000.0
1211.963,8677880000.0
1212.013,8674910000.0
1212.063,8668770000.0
1212.113,8662910000.0
1212.163,8657370000.0
1212.213,8652190000.0
1212.261,8647530000.0
1212.357,8640610000.0
1212.549,8627460000.0
1212.933,8601200000.0
1213.7,8571290000.0
1214.31,8570890000.0
1214.822,8595160000.0
1215.335,8564610000.0
1215.399,8525360000.0
1215.463,8468510000.0
1215.513,8420940000.0
1215.563,8396640000.0
1215.591,8397430000.0
1215.623,8401210000.0
1215.655,8405060000.0
1215.663,8406020000.0
1215.67,8406860000.0
1215.679,8407930000.0
1215.687,8408910000.0
1215.719,8412760000.0
1215.751,8416720000.0
1215.815,8448240000.0
1215.879,8534170000.0
1215.943,8623540000.0
1216.007,8696810000.0
1216.135,8805480000.0
1216.39,8975410000.0
1216.52,9059250000.0
1216.78,9195780000.0
1217.032,9347600000.0
1217.536,9640430000.0
1218.544,10216100000.0
1219.081,10480700000.0
1220.156,11072800000.0
1221.131,11518300000.0
1222.106,11869700000.0
1223.081,12225300000.0
1223.18,12262500000.0
1223.377,12338600000.0
1223.772,12489700000.0
1224.561,12762400000.0
1225.229,12955300000.0
1226.565,13268600000.0
1227.279,13416400000.0
1228.707,13728700000.0
1229.328,13869400000.0
1230.57,14167900000.0
1231.378,14355600000.0
1232.993,14737900000.0
1233.427,14841900000.0
1234.294,15048700000.0
1235.476,15323300000.0
1237.526,15802900000.0
1239.575,16274700000.0
1241.625,16753200000.0
1245.725,17756600000.0
1249.825,18816800000.0
1250.812,19069500000.0
1252.786,19609600000.0
1256.733,20712700000.0
1260.0,21699800000.0
1263.267,22774700000.0
1265.0,23349900000.0
1268.466,24486900000.0
1270.0,25026200000.0
1273.068,26127800000.0
1275.0,26822700000.0
1278.863,28353800000.0
1280.0,28805500000.0
1282.273,29704500000.0
1285.0,30746800000.0
1287.727,31841200000.0
1290.0,32786000000.0
1294.547,34808600000.0
1295.0,35020800000.0
1295.906,35449100000.0
1297.719,36307300000.0
1300.0,37389100000.0
1305.0,39755000000.0
1310.0,42245800000.0
1315.0,44880700000.0
1320.0,47659100000.0
1325.0,50595300000.0
1330.0,53707300000.0
1335.0,56981600000.0
1340.0,60391400000.0
1345.0,63943200000.0
1350.0,67676800000.0
1355.0,71627000000.0
1360.0,75733300000.0
1365.0,80041700000.0
1370.0,84577100000.0
1374.231,88551100000.0
1378.462,92667600000.0
1379.231,93434300000.0
1380.0,94206600000.0
1381.538,95768600000.0
1384.614,98959100000.0
1385.0,99365000000.0
1385.771,100181000000.0
1387.314,101830000000.0
1390.0,104751000000.0
1395.0,110380000000.0
1400.0,116262000000.0
1405.0,122416000000.0
1410.0,128866000000.0
1415.0,135595000000.0
1420.0,142583000000.0
1425.0,149869000000.0
1430.0,157467000000.0
1435.0,165334000000.0
1440.0,173444000000.0
1445.0,181839000000.0
1450.0,190552000000.0
1455.0,199588000000.0
1460.0,208977000000.0
1465.0,218727000000.0
1470.0,228966000000.0
1473.462,236344000000.0
1476.923,243959000000.0
1478.462,247428000000.0
1480.0,250950000000.0
1483.076,258159000000.0
1485.0,262782000000.0
1488.848,272269000000.0
1490.0,275162000000.0
1492.304,281009000000.0
1495.0,287922000000.0
1500.0,300910000000.0
1505.0,314207000000.0
1510.0,328097000000.0
1515.0,342790000000.0
1520.0,358153000000.0
1525.0,373644000000.0
1530.0,388699000000.0
1535.0,403297000000.0
1540.0,418002000000.0
1545.0,433487000000.0
1550.0,450123000000.0
1555.0,467899000000.0
1560.0,486466000000.0
1565.0,505300000000.0
1570.0,524006000000.0
1572.692,534016000000.0
1575.385,544031000000.0
1577.692,552685000000.0
1580.0,561466000000.0
1584.616,579580000000.0
1585.0,581135000000.0
1585.768,584258000000.0
1587.304,590596000000.0
1590.0,602037000000.0
1595.0,624496000000.0
1600.0,648728000000.0
1605.0,674900000000.0
1610.0,703166000000.0
1615.0,733666000000.0
1620.0,766489000000.0
1625.0,801721000000.0
1630.0,839617000000.0
1635.0,880200000000.0
1640.0,923603000000.0
1645.0,969909000000.0
1650.0,1019360000000.0
1655.0,1072130000000.0
1660.0,1128900000000.0
1665.0,1190130000000.0
1670.0,1257030000000.0
1671.923,1284000000000.0
1673.846,1312490000000.0
1676.923,1361900000000.0
1680.0,1417150000000.0
1685.0,1520070000000.0
1687.5,1580650000000.0
1690.0,1653640000000.0
1692.5,1734880000000.0
1695.0,1831770000000.0
1697.5,1945210000000.0
1700.0,2085020000000.0
1702.5,2251880000000.0
1705.0,2456390000000.0
1706.25,2569300000000.0
1707.5,2691210000000.0
1708.75,2832970000000.0
1710.0,2995380000000.0
1712.5,3340400000000.0
1713.75,3548960000000.0
1715.0,3787800000000.0
1717.5,4284750000000.0
1718.75,4573400000000.0
1720.0,4904680000000.0
1722.5,5608260000000.0
1723.75,6012910000000.0
1725.0,6473330000000.0
1727.5,7422770000000.0
1728.75,7968120000000.0
1730.0,8582460000000.0
1732.5,9818600000000.0
1733.75,10511800000000.0
1735.0,11285700000000.0
1737.5,12835000000000.0
1738.75,13697500000000.0
1740.0,14648500000000.0
1742.5,16511400000000.0
1743.75,17527100000000.0
1745.0,18637000000000.0
1747.5,20797500000000.0
1748.75,21957900000000.0
1750.0,23210100000000.0
1752.5,25617800000000.0
1755.0,28261600000000.0
1757.5,30795300000000.0
1761.154,34734500000000.0
1764.808,38633200000000.0
1772.116,46283400000000.0
1772.308,46474700000000.0
1772.808,46978100000000.0
1773.808,48005300000000.0
1775.808,50092900000000.0
1779.808,53975600000000.0
1783.808,57682300000000.0
1791.808,64629800000000.0
1795.808,67851700000000.0
1799.808,70845900000000.0
1807.808,76379000000000.0
1815.808,81431400000000.0
1821.539,84742800000000.0
1833.001,90867500000000.0
1844.463,96502700000000.0
1855.925,101803000000000.0
1867.387,106885000000000.0
1870.769,108364000000000.0
1877.534,111272000000000.0
1891.064,117021000000000.0
1904.594,122697000000000.0
1918.123,128339000000000.0
1920.0,129122000000000.0
1923.753,130680000000000.0
1931.26,133800000000000.0
1946.274,140040000000000.0
1961.288,146278000000000.0
1969.231,149581000000000.0
1985.118,156172000000000.0
2001.004,162754000000000.0
2016.891,169316000000000.0
2018.462,169971000000000.0
2021.604,171272000000000.0
2027.888,173857000000000.0
2040.455,179076000000000.0
2053.022,184303000000000.0
2065.59,189575000000000.0
2067.692,190459000000000.0
2071.896,192226000000000.0
2080.304,195776000000000.0
2097.121,202891000000000.0
2113.937,210011000000000.0
2116.923,211280000000000.0
2122.895,213798000000000.0
2134.84,218800000000000.0
2146.784,223769000000000.0
2158.728,228707000000000.0
2166.154,231719000000000.0
2181.006,237695000000000.0
2195.857,243531000000000.0
2210.709,249319000000000.0
2215.385,251134000000000.0
2224.738,254752000000000.0
2243.443,261999000000000.0
2262.148,269305000000000.0
2264.615,270278000000000.0
2269.55,272219000000000.0
2279.419,276101000000000.0
2299.157,283984000000000.0
2313.846,289984000000000.0
2328.535,296068000000000.0
2343.224,302255000000000.0
2357.913,308559000000000.0
2363.077,310786000000000.0
2373.405,315250000000000.0
2383.733,319702000000000.0
2394.061,324134000000000.0
2404.389,328527000000000.0
2412.307,331848000000000.0
2428.142,338361000000000.0
2443.977,344707000000000.0
2459.812,350867000000000.0
2461.538,351524000000000.0
2464.991,352818000000000.0
2471.896,355401000000000.0
2485.707,360498000000000.0
2499.517,365483000000000.0
2510.769,369449000000000.0
2522.021,373360000000000.0
2533.273,377198000000000.0
2544.525,380998000000000.0
2555.777,384746000000000.0
2560.0,386146000000000.0
2568.446,388902000000000.0
2585.339,394357000000000.0
2602.231,399727000000000.0
2619.124,405014000000000.0
2636.017,410222000000000.0
2652.909,415353000000000.0
2658.461,417023000000000.0
2669.564,420314000000000.0
2680.668,423574000000000.0
2691.771,426821000000000.0
2702.875,430031000000000.0
2713.979,433186000000000.0
2725.082,436355000000000.0
2736.186,439445000000000.0
2747.289,442502000000000.0
2756.923,445129000000000.0
2776.191,450271000000000.0
2795.459,455315000000000.0
2814.727,460259000000000.0
2833.995,465101000000000.0
2853.263,469841000000000.0
2855.385,470356000000000.0
2859.628,471376000000000.0
2868.115,473402000000000.0
2885.087,477393000000000.0
2902.06,481301000000000.0
2919.032,485129000000000.0
2936.005,488876000000000.0
2945.1,490851000000000.0
2953.846,492728000000000.0
2971.338,496384000000000.0
2988.829,499953000000000.0
3006.321,503437000000000.0
3023.813,506834000000000.0
3041.304,510147000000000.0
3052.308,512187000000000.0
3063.312,514182000000000.0
3074.315,516143000000000.0
3085.319,518071000000000.0
3096.323,519964000000000.0
3107.326,521824000000000.0
3118.33,523652000000000.0
3129.334,525446000000000.0
3140.337,527206000000000.0
3150.769,528846000000000.0
3161.201,530454000000000.0
3171.632,532033000000000.0
3182.064,533583000000000.0
3187.7,534408000000000.0
3198.972,536032000000000.0
3210.244,537624000000000.0
3221.516,539182000000000.0
3232.788,540706000000000.0
3244.06,542197000000000.0
3249.231,542870000000000.0
3259.573,544195000000000.0
3269.916,545492000000000.0
3280.258,546761000000000.0
3290.6,548003000000000.0
