Wavelength,Flux
900.0,22725400.0
903.442,24977800.0
904.998,26061200.0
906.554,27187300.0
908.11,28357500.0
909.667,29574100.0
910.703,30409800.0
911.74,31267700.0
911.84,31351700.0
912.0,31486300.0
912.31,31748700.0
912.779,32149400.0
913.717,32964600.0
914.335,33512000.0
915.329,34409800.0
915.824,34864900.0
915.892,34928000.0
916.028,35054800.0
916.3,35308500.0
916.429,35428700.0
916.686,35674600.0
917.181,36141100.0
917.448,36414900.0
917.982,36923400.0
918.129,37057500.0
918.423,37416300.0
919.004,38056400.0
919.351,38270100.0
919.698,38842100.0
920.045,39308000.0
920.56,39892300.0
920.761,39890900.0
920.963,39924700.0
921.165,40342200.0
921.366,40894200.0
921.568,41230500.0
921.769,41526800.0
921.971,41808800.0
922.117,42007600.0
922.41,42385800.0
922.506,42498300.0
922.699,42665100.0
922.895,42527900.0
922.992,42224200.0
923.089,42206300.0
923.114,42233800.0
923.138,42260200.0
923.144,42266800.0
923.15,42273500.0
923.156,42280000.0
923.162,42286700.0
923.187,42314200.0
923.211,42340700.0
923.261,42401700.0
923.308,42579000.0
923.402,43136800.0
923.405,43153700.0
923.455,43398100.0
923.555,43752800.0
923.755,44210400.0
923.794,44283300.0
923.872,44420500.0
924.028,44674800.0
924.183,44913700.0
924.436,45300900.0
924.688,45676600.0
924.939,46042400.0
925.189,46393500.0
925.579,46848000.0
925.774,46884000.0
925.97,46357200.0
926.067,45778800.0
926.116,45664700.0
926.164,45716200.0
926.189,45745800.0
926.214,45775400.0
926.22,45782500.0
926.226,45789600.0
926.232,45796700.0
926.238,45803900.0
926.263,45833500.0
926.287,45861900.0
926.337,45927800.0
926.385,46159900.0
926.481,47006100.0
926.532,47395000.0
926.632,47974700.0
926.832,48651600.0
926.873,48750400.0
926.955,48929600.0
927.119,49256300.0
927.263,49516700.0
927.551,50001100.0
927.875,50523800.0
928.487,51493900.0
929.097,52440300.0
929.706,53323900.0
930.098,53659000.0
930.295,53438600.0
930.491,52322900.0
930.589,51448200.0
930.638,51301800.0
930.687,51361700.0
930.711,51393400.0
930.736,51426300.0
930.742,51434200.0
930.748,51442100.0
930.754,51450000.0
930.76,51457900.0
930.785,51490800.0
930.809,51522500.0
930.859,51594400.0
930.907,51869800.0
930.955,52408500.0
931.003,53010400.0
931.005,53034700.0
931.055,53608100.0
931.155,54500100.0
931.255,55115500.0
931.355,55547400.0
931.398,55699300.0
931.484,55977100.0
931.657,56421600.0
931.79,56712600.0
932.057,57236900.0
932.591,58193200.0
933.033,58960600.0
933.918,60486200.0
934.276,61103700.0
934.992,62342500.0
935.514,63245000.0
936.558,64952400.0
936.753,65199100.0
937.143,65293400.0
937.148,65286600.0
937.198,65199000.0
937.298,64872900.0
937.398,64292400.0
937.498,63328200.0
937.544,62742300.0
937.636,61608800.0
937.642,61555300.0
937.692,61366200.0
937.741,61437500.0
937.766,61476100.0
937.791,61514800.0
937.797,61524100.0
937.803,61533400.0
937.809,61542700.0
937.815,61552000.0
937.84,61590800.0
937.865,61629500.0
937.915,61712800.0
937.964,62057200.0
938.013,62770000.0
938.062,63573300.0
938.16,65069000.0
938.258,66177400.0
938.356,66990400.0
938.458,67608600.0
938.662,68447600.0
938.853,69019000.0
939.235,69920100.0
940.0,71526200.0
940.434,72404000.0
941.302,74154500.0
942.015,75603100.0
942.894,77412000.0
943.773,79257000.0
944.625,81076800.0
945.478,82923200.0
947.079,86429100.0
948.68,89210000.0
948.88,89125400.0
949.08,88704100.0
949.28,87368200.0
949.48,84422300.0
949.58,82779700.0
949.63,82543500.0
949.68,82639900.0
949.705,82690500.0
949.73,82741000.0
949.737,82755300.0
949.743,82767400.0
949.749,82779600.0
949.755,82791800.0
949.781,82844400.0
949.806,82895200.0
949.856,83001800.0
949.906,83443700.0
949.956,84402300.0
950.006,85515000.0
950.056,86660900.0
950.156,88600100.0
950.256,90100800.0
950.356,91229500.0
950.406,91684200.0
950.506,92444800.0
950.707,93669700.0
950.806,94169600.0
951.005,95025100.0
951.402,96406100.0
952.197,98699600.0
952.407,99269800.0
952.827,100397000.0
953.666,102634000.0
954.008,103551000.0
954.692,105398000.0
955.609,107910000.0
957.211,112416000.0
958.812,117087000.0
960.413,121935000.0
960.776,123059000.0
961.14,124196000.0
961.376,124936000.0
961.611,125677000.0
962.081,127172000.0
963.021,130210000.0
963.251,130962000.0
963.71,132477000.0
964.629,135555000.0
964.89,136441000.0
965.412,138228000.0
966.456,141863000.0
966.53,142124000.0
966.678,142647000.0
966.975,143700000.0
967.567,145827000.0
968.169,148012000.0
969.372,152475000.0
969.809,154125000.0
970.683,157473000.0
971.448,160441000.0
971.858,162002000.0
972.268,163532000.0
972.37,163909000.0
972.473,164290000.0
972.499,164386000.0
972.524,164478000.0
972.531,164504000.0
972.537,164526000.0
972.543,164549000.0
972.55,164575000.0
972.575,164667000.0
972.601,164764000.0
972.653,164956000.0
972.703,165150000.0
972.803,165539000.0
972.806,165551000.0
972.856,165747000.0
972.956,166137000.0
973.156,166922000.0
973.216,167157000.0
973.336,167634000.0
973.576,168643000.0
973.626,168854000.0
973.726,169278000.0
973.926,170127000.0
974.326,171859000.0
975.126,175372000.0
975.265,175990000.0
975.544,177221000.0
976.101,179698000.0
976.905,183298000.0
978.512,190690000.0
978.544,190838000.0
978.608,191136000.0
978.735,191732000.0
978.989,192927000.0
979.498,195340000.0
980.184,198635000.0
981.556,205364000.0
981.823,206694000.0
982.357,209377000.0
983.424,214841000.0
983.463,215041000.0
983.54,215441000.0
983.694,216244000.0
984.003,217859000.0
984.62,221123000.0
985.102,223703000.0
986.065,228949000.0
986.742,232703000.0
988.095,240384000.0
988.381,242034000.0
988.953,245362000.0
990.021,251697000.0
991.66,261724000.0
993.3,272148000.0
996.58,294198000.0
996.65,294686000.0
996.79,295665000.0
997.07,297632000.0
997.63,301606000.0
998.75,309696000.0
1000.0,318941000.0
1001.912,333584000.0
1003.824,348867000.0
1005.553,363218000.0
1007.282,378123000.0
1009.011,393601000.0
1010.74,409639000.0
1012.469,426181000.0
1014.199,443293000.0
1015.928,460903000.0
1017.657,478851000.0
1019.386,496680000.0
1021.115,512736000.0
1021.979,518457000.0
1022.844,520616000.0
1023.708,515410000.0
1024.573,501942000.0
1024.624,500986000.0
1024.674,500016000.0
1024.724,499064000.0
1024.774,498144000.0
1024.824,497167000.0
1024.874,496156000.0
1024.924,495096000.0
1024.974,493973000.0
1025.006,493271000.0
1025.069,491885000.0
1025.196,488074000.0
1025.317,482021000.0
1025.438,472535000.0
1025.546,461139000.0
1025.6,456894000.0
1025.654,456066000.0
1025.681,456312000.0
1025.708,456567000.0
1025.715,456632000.0
1025.72,456678000.0
1025.722,456698000.0
1025.729,456764000.0
1025.736,456829000.0
1025.763,457084000.0
1025.79,457339000.0
1025.844,458420000.0
1025.898,462823000.0
1025.952,469401000.0
1026.006,476343000.0
1026.115,487839000.0
1026.223,496405000.0
1026.332,502703000.0
1026.438,507616000.0
1026.65,516633000.0
1026.87,525495000.0
1027.31,542691000.0
1028.189,574840000.0
1028.6,587417000.0
1029.422,607710000.0
1030.244,624830000.0
1030.329,626496000.0
1030.5,629815000.0
1030.842,636342000.0
1031.525,648994000.0
1032.058,658247000.0
1033.123,675852000.0
1033.787,686618000.0
1035.114,707869000.0
1035.516,714440000.0
1036.32,727834000.0
1037.246,743601000.0
1038.975,773293000.0
1040.704,803548000.0
1042.433,834479000.0
1044.162,866349000.0
1045.892,899353000.0
1047.621,933470000.0
1048.81,957598000.0
1050.0,982327000.0
1052.38,1033480000.0
1055.0,1092590000.0
1057.62,1154750000.0
1060.0,1214060000.0
1064.76,1340550000.0
1065.0,1347230000.0
1065.48,1360670000.0
1066.441,1387920000.0
1068.363,1443800000.0
1070.0,1492710000.0
1073.273,1595010000.0
1075.0,1651480000.0
1078.453,1769530000.0
1080.0,1824980000.0
1081.538,1881670000.0
1083.077,1939950000.0
1086.155,2060560000.0
1086.538,2076030000.0
1087.304,2107250000.0
1088.835,2170980000.0
1090.0,2220570000.0
1092.33,2322610000.0
1095.0,2444110000.0
1097.67,2571360000.0
1100.0,2687160000.0
1104.661,2931000000.0
1105.0,2949490000.0
1105.679,2986750000.0
1107.036,3062540000.0
1109.751,3219090000.0
1110.0,3233780000.0
1110.498,3263130000.0
1111.494,3322400000.0
1113.486,3443650000.0
1115.0,3538230000.0
1118.027,3733660000.0
1120.0,3865350000.0
1123.945,4134960000.0
1125.0,4208700000.0
1127.109,4356590000.0
1130.0,4556940000.0
1131.154,4637280000.0
1132.308,4716700000.0
1134.616,4876270000.0
1136.154,4980710000.0
1139.23,5181620000.0
1140.0,5228000000.0
1141.539,5320470000.0
1144.617,5492520000.0
1145.0,5513930000.0
1145.766,5551530000.0
1147.297,5629470000.0
1150.0,5758670000.0
1152.703,5881570000.0
1155.406,5995050000.0
1158.109,6103530000.0
1160.812,6221500000.0
1163.516,6349380000.0
1165.769,6473860000.0
1170.276,6780160000.0
1174.783,7154550000.0
1179.29,7587290000.0
1181.538,7821990000.0
1185.628,8279480000.0
1189.718,8768710000.0
1191.767,9020190000.0
1193.816,9273870000.0
1195.866,9528740000.0
1197.915,9785530000.0
1199.964,10047700000.0
1202.014,10311900000.0
1204.063,10579500000.0
1206.113,10832700000.0
1208.162,11049000000.0
1210.211,11212300000.0
1212.261,11327100000.0
1214.31,11506200000.0
1214.822,11575400000.0
1215.335,11638100000.0
1215.463,11631600000.0
1215.591,11625000000.0
1215.623,11630300000.0
1215.655,11635500000.0
1215.663,11636800000.0
1215.67,11637900000.0
1215.679,11639400000.0
1215.687,11640700000.0
1215.719,11645900000.0
1215.751,11651200000.0
1215.815,11670500000.0
1215.879,11706900000.0
1216.007,11772100000.0
1216.263,11869200000.0
1216.52,11968700000.0
1217.032,12163900000.0
1218.056,12579200000.0
1219.081,12955300000.0
1220.106,13282400000.0
1221.131,13567000000.0
1221.181,13581300000.0
1221.231,13595800000.0
1221.281,13610400000.0
1221.331,13625200000.0
1221.381,13640400000.0
1221.431,13655900000.0
1221.481,13671600000.0
1221.531,13684300000.0
1221.581,13695200000.0
1221.631,13706100000.0
1221.682,13717100000.0
1221.732,13728000000.0
1221.782,13739000000.0
1221.832,13750000000.0
1221.882,13761000000.0
1221.932,13772000000.0
1221.982,13783000000.0
1222.032,13794100000.0
1222.082,13805300000.0
1222.132,13816500000.0
1222.182,13827700000.0
1222.232,13838800000.0
1222.282,13850000000.0
1222.332,13861300000.0
1222.382,13872500000.0
1222.432,13883800000.0
1222.482,13895100000.0
1222.532,13907800000.0
1222.582,13921300000.0
1222.632,13934800000.0
1222.682,13948500000.0
1222.733,13962200000.0
1222.783,13976100000.0
1222.833,13990000000.0
1222.883,14004100000.0
1222.933,14018200000.0
1222.983,14032400000.0
1223.033,14045900000.0
1223.083,14059000000.0
1223.133,14072200000.0
1223.18,14084700000.0
1223.274,14109900000.0
1223.463,14161400000.0
1223.84,14261300000.0
1224.594,14453200000.0
1225.229,14604700000.0
1226.5,14886900000.0
1227.279,15053000000.0
1228.838,15395100000.0
1229.328,15505000000.0
1230.309,15730900000.0
1231.378,15978300000.0
1233.427,16460100000.0
1235.476,16947900000.0
1237.526,17443000000.0
1239.575,17941300000.0
1241.625,18449800000.0
1245.725,19510200000.0
1249.825,20628400000.0
1250.812,20900200000.0
1252.786,21466400000.0
1256.733,22634800000.0
1260.0,23663000000.0
1263.267,24766200000.0
1265.0,25359700000.0
1268.466,26554900000.0
1270.0,27114300000.0
1273.068,28258400000.0
1275.0,28985900000.0
1278.863,30561000000.0
1280.0,31030400000.0
1282.273,31971400000.0
1285.0,33080500000.0
1287.727,34239200000.0
1290.0,35237900000.0
1294.547,37361200000.0
1295.0,37583000000.0
1295.906,38030800000.0
1297.719,38931000000.0
1300.0,40071300000.0
1305.0,42583700000.0
1310.0,45228500000.0
1315.0,48024400000.0
1320.0,50972000000.0
1325.0,54084500000.0
1330.0,57381400000.0
1335.0,60851800000.0
1340.0,64466600000.0
1345.0,68233400000.0
1350.0,72191700000.0
1355.0,76378500000.0
1360.0,80733500000.0
1365.0,85303100000.0
1370.0,90114100000.0
1374.231,94329400000.0
1378.462,98696500000.0
1379.231,99509800000.0
1380.0,100329000000.0
1381.538,101986000000.0
1384.614,105371000000.0
1385.0,105801000000.0
1385.771,106667000000.0
1387.314,108416000000.0
1390.0,111515000000.0
1395.0,117486000000.0
1400.0,123727000000.0
1405.0,130257000000.0
1410.0,137103000000.0
1415.0,144248000000.0
1420.0,151667000000.0
1425.0,159403000000.0
1430.0,167471000000.0
1435.0,175818000000.0
1440.0,184414000000.0
1445.0,193308000000.0
1450.0,202536000000.0
1455.0,212100000000.0
1460.0,222038000000.0
1465.0,232356000000.0
1470.0,243203000000.0
1473.462,251025000000.0
1476.923,259105000000.0
1478.462,262787000000.0
1480.0,266528000000.0
1483.076,274192000000.0
1485.0,279111000000.0
1488.848,289213000000.0
1490.0,292294000000.0
1492.304,298520000000.0
1495.0,305876000000.0
1500.0,319668000000.0
1505.0,333767000000.0
1510.0,348514000000.0
1515.0,364165000000.0
1520.0,380554000000.0
1525.0,397011000000.0
1530.0,412839000000.0
1535.0,428015000000.0
1540.0,443284000000.0
1545.0,459411000000.0
1550.0,476844000000.0
1555.0,495553000000.0
1560.0,515119000000.0
1565.0,534921000000.0
1570.0,554499000000.0
1572.692,564943000000.0
1575.385,575379000000.0
1577.692,584393000000.0
1580.0,593539000000.0
1584.616,612443000000.0
1585.0,614070000000.0
1585.768,617336000000.0
1587.304,623970000000.0
1590.0,635965000000.0
1595.0,659565000000.0
1600.0,685106000000.0
1605.0,712810000000.0
1610.0,742881000000.0
1615.0,775548000000.0
1620.0,811050000000.0
1625.0,849514000000.0
1630.0,891035000000.0
1635.0,935458000000.0
1640.0,982712000000.0
1645.0,1032600000000.0
1650.0,1084970000000.0
1655.0,1139460000000.0
1660.0,1196460000000.0
1665.0,1255950000000.0
1670.0,1318320000000.0
1671.923,1342920000000.0
1673.846,1368230000000.0
1676.923,1410400000000.0
1680.0,1454600000000.0
1685.0,1531600000000.0
1690.0,1618220000000.0
1695.0,1719060000000.0
1697.5,1776280000000.0
1700.0,1841360000000.0
1702.5,1912200000000.0
1705.0,1993320000000.0
1707.5,2082550000000.0
1710.0,2186490000000.0
1712.5,2299050000000.0
1715.0,2431290000000.0
1717.5,2570510000000.0
1720.0,2734900000000.0
1722.5,2909250000000.0
1725.0,3107670000000.0
1727.5,3317830000000.0
1730.0,3555060000000.0
1735.0,4068520000000.0
1737.5,4350300000000.0
1740.0,4660590000000.0
1745.0,5314000000000.0
1750.0,6023880000000.0
1755.0,6779010000000.0
1760.0,7567200000000.0
1761.154,7751810000000.0
1763.462,8116220000000.0
1768.078,8867470000000.0
1772.308,9564280000000.0
1780.767,10968400000000.0
1797.686,13718500000000.0
1814.604,16468000000000.0
1821.539,17605800000000.0
1835.409,19923300000000.0
1849.278,22322500000000.0
1863.148,24839100000000.0
1870.769,26283100000000.0
1886.011,29306600000000.0
1901.254,32526600000000.0
1916.496,35943300000000.0
1920.0,36758300000000.0
1927.007,38422200000000.0
1941.022,41892600000000.0
1955.037,45536800000000.0
1969.051,49352600000000.0
1969.231,49402900000000.0
1969.731,49542900000000.0
1970.731,49823400000000.0
1972.731,50383500000000.0
1976.731,51519100000000.0
1984.731,53831500000000.0
2000.731,58598700000000.0
2016.731,63519300000000.0
2018.462,64076000000000.0
2021.924,65184000000000.0
2028.849,67397100000000.0
2042.697,72029100000000.0
2056.546,76866000000000.0
2067.692,80943700000000.0
2078.838,85205900000000.0
2089.984,89606800000000.0
2101.13,94210300000000.0
2112.276,98864600000000.0
2116.923,100871000000000.0
2126.218,104851000000000.0
2144.806,112905000000000.0
2163.395,120833000000000.0
2166.154,121941000000000.0
2171.672,124180000000000.0
2182.707,128653000000000.0
2193.742,132829000000000.0
2204.777,136979000000000.0
2215.385,140866000000000.0
2225.993,144801000000000.0
2236.601,148787000000000.0
2247.209,152919000000000.0
2257.817,157169000000000.0
2264.615,160012000000000.0
2278.212,165904000000000.0
2291.808,172307000000000.0
2305.405,179223000000000.0
2313.846,183910000000000.0
2330.728,194293000000000.0
2347.61,206164000000000.0
2363.077,218401000000000.0
2378.544,231920000000000.0
2394.011,246147000000000.0
2409.479,260678000000000.0
2412.307,263346000000000.0
2417.963,268777000000000.0
2429.276,278972000000000.0
2440.588,289259000000000.0
2451.901,298379000000000.0
2461.538,306229000000000.0
2480.813,320084000000000.0
2500.088,332223000000000.0
2510.769,338161000000000.0
2521.45,344029000000000.0
2532.131,349303000000000.0
2542.812,354484000000000.0
2553.494,359287000000000.0
2560.0,362212000000000.0
2573.013,367639000000000.0
2586.025,372908000000000.0
2599.038,377986000000000.0
2612.051,382853000000000.0
2625.063,387615000000000.0
2638.076,392249000000000.0
2651.089,396762000000000.0
2658.461,399293000000000.0
2673.205,404222000000000.0
2687.949,409262000000000.0
2702.693,414337000000000.0
2717.438,418936000000000.0
2732.182,423432000000000.0
2746.926,427875000000000.0
2756.923,430857000000000.0
2776.918,436717000000000.0
2796.912,442474000000000.0
2816.907,448126000000000.0
2836.902,453673000000000.0
2855.385,458705000000000.0
2873.868,463621000000000.0
2892.352,468444000000000.0
2910.835,473173000000000.0
2929.319,477804000000000.0
2945.1,481682000000000.0
2953.846,483801000000000.0
2971.338,487950000000000.0
2988.829,492012000000000.0
3006.321,495986000000000.0
3023.813,499872000000000.0
3041.304,503671000000000.0
3052.308,506016000000000.0
3063.312,508317000000000.0
3074.315,510585000000000.0
3085.319,512818000000000.0
3096.323,515016000000000.0
3107.326,517179000000000.0
3118.33,519309000000000.0
3129.334,521404000000000.0
3140.337,523465000000000.0
3150.769,525387000000000.0
3161.201,527278000000000.0
3171.632,529139000000000.0
3182.064,530970000000000.0
3187.7,531946000000000.0
3198.972,533872000000000.0
3210.244,535762000000000.0
3221.516,537618000000000.0
3232.788,539438000000000.0
3244.06,541223000000000.0
3249.231,542030000000000.0
3259.573,543623000000000.0
3269.916,545187000000000.0
3280.258,546723000000000.0
3290.6,548229000000000.0
3300.942,549706000000000.0
3311.285,551154000000000.0
3321.627,552574000000000.0
3331.969,553965000000000.0
3342.312,555328000000000.0
3347.692,556026000000000.0
3358.453,557400000000000.0
3369.213,558744000000000.0
3379.974,560059000000000.0
3390.735,561342000000000.0
3401.496,562596000000000.0
3412.256,563820000000000.0
3423.017,565014000000000.0
3433.778,566178000000000.0
3444.539,567312000000000.0
3446.154,567481000000000.0
3449.385,567814000000000.0
3455.847,568472000000000.0
3468.771,569758000000000.0
3481.695,571002000000000.0
3494.618,572206000000000.0
3507.542,573367000000000.0
3520.466,574489000000000.0
3533.39,575570000000000.0
3544.615,576477000000000.0
3555.84,577351000000000.0
3567.065,578195000000000.0
3578.29,579009000000000.0
3589.515,579795000000000.0
3595.868,580226000000000.0
3608.573,581058000000000.0
3621.278,581854000000000.0
3633.983,582613000000000.0
3646.5,583327000000000.0
3647.0,583355000000000.0
3647.12,583361000000000.0
3647.22,582403000000000.0
3647.42,582415000000000.0
3647.819,582438000000000.0
3648.0,582449000000000.0
3648.362,582471000000000.0
3649.085,582515000000000.0
3650.533,582602000000000.0
3653.427,582773000000000.0
3659.216,583111000000000.0
3665.005,583441000000000.0
3668.675,583646000000000.0
3676.014,584049000000000.0
3682.807,584411000000000.0
3686.832,584620000000000.0
3690.13,584790000000000.0
3691.554,584862000000000.0
3694.402,585005000000000.0
3696.486,585109000000000.0
3697.152,585141000000000.0
3698.484,585208000000000.0
3701.148,585339000000000.0
3702.843,585421000000000.0
3703.853,585469000000000.0
3705.0,585525000000000.0
3707.294,585634000000000.0
3709.2,585725000000000.0
3711.971,585850000000000.0
3715.556,586019000000000.0
3721.913,586298000000000.0
3721.938,586299000000000.0
3721.988,586301000000000.0
3722.038,586304000000000.0
3722.088,586307000000000.0
3722.138,586309000000000.0
3722.188,586312000000000.0
3722.238,586315000000000.0
3722.288,586318000000000.0
3722.338,586320000000000.0
3722.388,586323000000000.0
3722.438,586325000000000.0
3722.489,586328000000000.0
3722.539,586331000000000.0
3722.589,586334000000000.0
3722.639,586336000000000.0
3722.689,586338000000000.0
3722.739,586341000000000.0
3722.789,586343000000000.0
3722.839,586346000000000.0
3722.889,586348000000000.0
3722.939,586350000000000.0
3722.989,586352000000000.0
3723.039,586355000000000.0
3723.089,586357000000000.0
3723.139,586359000000000.0
3723.189,586362000000000.0
3723.239,586364000000000.0
3723.289,586367000000000.0
3723.339,586369000000000.0
3723.389,586371000000000.0
3723.439,586373000000000.0
3723.49,586375000000000.0
