Wavelength,Flux
900.0,3370710.0
903.442,3731830.0
904.998,3906440.0
906.554,4088540.0
908.11,4278370.0
909.667,4476400.0
910.703,4612800.0
911.74,4753110.0
911.84,4766850.0
912.0,4788910.0
912.31,4831900.0
912.779,4897620.0
913.717,5031530.0
914.335,5121580.0
915.329,5269510.0
915.824,5344640.0
915.892,5355050.0
916.028,5375910.0
916.3,5417870.0
916.429,5437800.0
916.686,5477910.0
917.181,5555650.0
917.448,5598410.0
917.982,5684160.0
918.129,5707570.0
918.423,5758000.0
919.004,5857080.0
919.351,5908990.0
920.045,6044580.0
920.56,6138160.0
920.963,6184670.0
921.366,6292980.0
921.769,6378820.0
922.117,6449200.0
922.506,6527740.0
922.895,6581600.0
922.992,6566170.0
923.089,6566250.0
923.114,6570860.0
923.138,6575290.0
923.144,6576400.0
923.15,6577510.0
923.156,6578620.0
923.162,6579720.0
923.187,6584340.0
923.211,6588790.0
923.261,6599590.0
923.308,6625970.0
923.402,6682070.0
923.405,6683490.0
923.455,6705020.0
923.555,6739150.0
923.755,6792580.0
923.794,6802040.0
923.872,6820480.0
924.028,6856260.0
924.183,6891070.0
924.436,6947240.0
924.688,7002900.0
924.939,7059290.0
925.189,7115250.0
925.579,7197540.0
925.97,7215140.0
926.067,7166390.0
926.164,7156390.0
926.189,7161360.0
926.214,7166360.0
926.22,7167540.0
926.226,7168760.0
926.232,7169950.0
926.238,7171160.0
926.263,7176150.0
926.287,7180960.0
926.337,7192890.0
926.385,7231200.0
926.481,7324960.0
926.532,7362510.0
926.632,7414510.0
926.832,7483890.0
926.873,7496160.0
926.955,7519340.0
927.119,7562700.0
927.263,7599010.0
927.551,7669750.0
927.875,7748540.0
928.487,7897050.0
929.097,8046800.0
929.706,8194350.0
930.098,8275250.0
930.295,8292120.0
930.491,8225140.0
930.589,8132210.0
930.687,8112910.0
930.711,8118280.0
930.736,8123900.0
930.742,8125230.0
930.748,8126580.0
930.754,8127930.0
930.76,8129270.0
930.785,8134880.0
930.809,8140270.0
930.859,8153510.0
930.907,8204250.0
931.003,8343510.0
931.005,8345950.0
931.055,8404560.0
931.155,8488960.0
931.355,8588360.0
931.398,8604560.0
931.484,8634480.0
931.656,8687930.0
931.79,8726320.0
932.058,8800720.0
932.593,8947580.0
933.033,9066900.0
933.914,9306320.0
934.276,9405970.0
935.001,9606920.0
935.514,9749760.0
936.54,10033800.0
936.753,10089000.0
937.148,10167800.0
937.346,10156100.0
937.544,10013500.0
937.642,9869400.0
937.691,9828810.0
937.74,9839840.0
937.766,9846760.0
937.791,9853450.0
937.797,9855050.0
937.803,9856650.0
937.809,9858270.0
937.815,9859850.0
937.84,9866550.0
937.865,9873240.0
937.915,9888730.0
937.964,9956220.0
938.014,10059400.0
938.062,10157000.0
938.158,10309800.0
938.254,10414000.0
938.35,10488300.0
938.458,10550800.0
938.674,10642800.0
938.853,10706000.0
939.212,10821500.0
939.93,11045600.0
940.434,11203100.0
941.443,11526200.0
942.015,11712700.0
942.894,12002600.0
943.773,12297600.0
944.625,12588800.0
945.478,12886900.0
947.079,13458400.0
948.68,14016500.0
949.08,14091300.0
949.28,14054400.0
949.48,13799300.0
949.58,13583400.0
949.63,13527900.0
949.68,13544200.0
949.705,13553200.0
949.73,13562100.0
949.737,13564600.0
949.743,13566800.0
949.749,13568900.0
949.755,13571100.0
949.781,13580400.0
949.806,13589400.0
949.856,13608900.0
949.906,13700900.0
949.956,13844600.0
950.006,13992600.0
950.106,14236200.0
950.206,14405000.0
950.306,14518300.0
950.406,14597000.0
950.606,14730100.0
950.806,14840700.0
951.206,15023100.0
952.005,15360800.0
952.407,15527900.0
953.211,15863900.0
954.008,16203500.0
955.602,16902300.0
955.609,16905400.0
955.659,16927700.0
955.759,16972400.0
955.959,17062100.0
956.159,17152300.0
956.359,17243400.0
956.559,17335100.0
956.759,17427300.0
956.959,17519800.0
957.159,17612800.0
957.211,17637000.0
957.315,17685500.0
957.523,17782800.0
957.938,17978800.0
958.769,18376500.0
958.812,18397200.0
958.898,18438600.0
959.069,18521700.0
959.411,18689300.0
960.096,19028400.0
960.413,19187400.0
960.776,19371300.0
961.14,19557200.0
961.376,19678600.0
961.611,19800200.0
962.081,20045600.0
963.021,20544700.0
963.251,20668700.0
963.71,20918600.0
964.629,21427900.0
964.89,21574700.0
965.412,21871200.0
966.456,22476400.0
966.53,22520000.0
966.678,22607400.0
966.975,22783100.0
967.567,23138200.0
968.169,23504000.0
969.372,24253500.0
969.809,24531200.0
970.683,25094900.0
971.448,25599500.0
971.858,25870900.0
972.268,26142600.0
972.37,26210200.0
972.473,26278600.0
972.499,26296000.0
972.524,26312600.0
972.531,26317300.0
972.537,26321200.0
972.543,26325300.0
972.55,26329900.0
972.575,26346600.0
972.601,26363900.0
972.653,26398600.0
972.703,26432500.0
972.803,26500500.0
972.806,26502500.0
972.856,26536500.0
972.956,26604800.0
973.156,26741700.0
973.216,26782900.0
973.336,26865700.0
973.576,27034900.0
973.626,27070200.0
973.726,27141000.0
973.926,27283100.0
974.326,27571200.0
975.126,28156600.0
975.265,28259800.0
975.544,28466700.0
976.101,28884400.0
976.905,29494800.0
978.512,30751900.0
978.544,30777200.0
978.608,30828000.0
978.735,30929600.0
978.989,31133900.0
979.498,31547000.0
980.184,32112900.0
981.556,33274700.0
981.823,33504600.0
982.357,33969100.0
983.424,34915700.0
983.463,34950400.0
983.54,35019800.0
983.694,35159400.0
984.003,35440000.0
984.62,36007900.0
985.102,36457300.0
986.065,37372900.0
986.742,38028700.0
988.095,39373600.0
988.381,39663700.0
988.953,40250500.0
990.021,41369600.0
991.66,43139200.0
993.3,44975600.0
996.58,48885400.0
996.65,48972100.0
996.79,49146500.0
997.07,49496800.0
997.63,50205000.0
998.75,51651900.0
1000.0,53316500.0
1001.912,55964400.0
1003.824,58704500.0
1005.553,61296900.0
1007.282,63996400.0
1009.011,66808600.0
1010.74,69741900.0
1012.469,72798000.0
1014.199,75980800.0
1015.928,79229100.0
1017.657,82565200.0
1019.386,85947300.0
1021.115,89142600.0
1021.979,90494800.0
1022.844,91414400.0
1023.708,91201300.0
1024.573,89681300.0
1024.624,89592800.0
1024.674,89514800.0
1024.724,89450200.0
1024.774,89377900.0
1024.824,89315700.0
1024.874,89265500.0
1024.924,89206600.0
1024.974,89147600.0
1025.006,89118500.0
1025.069,89066800.0
1025.196,88994000.0
1025.317,88692500.0
1025.438,87834700.0
1025.546,86408800.0
1025.654,85464700.0
1025.681,85512000.0
1025.708,85563300.0
1025.715,85576500.0
1025.72,85586200.0
1025.722,85590100.0
1025.729,85603300.0
1025.736,85616600.0
1025.763,85668000.0
1025.79,85719700.0
1025.844,85982000.0
1025.898,86813700.0
1025.952,87833300.0
1026.006,88764000.0
1026.115,90067700.0
1026.223,90901600.0
1026.332,91463900.0
1026.438,91962500.0
1026.65,93061700.0
1026.87,94290100.0
1027.31,97019700.0
1028.189,102272000.0
1028.6,104328000.0
1029.422,107665000.0
1030.244,110517000.0
1030.329,110803000.0
1030.5,111374000.0
1030.842,112504000.0
1031.525,114730000.0
1032.058,116404000.0
1033.123,119664000.0
1033.787,121662000.0
1035.114,125647000.0
1035.516,126865000.0
1036.32,129346000.0
1037.246,132271000.0
1038.975,137830000.0
1040.704,143538000.0
1042.433,149410000.0
1044.162,155508000.0
1045.892,161841000.0
1047.621,168355000.0
1048.81,172969000.0
1050.0,177712000.0
1052.38,187546000.0
1055.0,198840000.0
1057.62,210778000.0
1060.0,222143000.0
1064.76,246522000.0
1065.0,247816000.0
1065.48,250422000.0
1066.441,255677000.0
1068.363,266431000.0
1070.0,275928000.0
1073.273,295890000.0
1075.0,306818000.0
1078.453,329841000.0
1080.0,340713000.0
1081.538,351798000.0
1083.077,363113000.0
1086.155,386782000.0
1086.538,389827000.0
1087.304,395989000.0
1088.835,408597000.0
1090.0,418371000.0
1092.33,438434000.0
1095.0,462535000.0
1097.67,487920000.0
1100.0,510917000.0
1104.661,559760000.0
1105.0,563481000.0
1105.679,570987000.0
1107.036,586296000.0
1109.751,617755000.0
1110.0,620701000.0
1110.498,626632000.0
1111.494,638636000.0
1113.486,663213000.0
1115.0,682426000.0
1118.027,721808000.0
1120.0,747886000.0
1123.945,801753000.0
1125.0,816541000.0
1127.109,846066000.0
1130.0,886571000.0
1131.154,902751000.0
1132.308,918722000.0
1134.616,950763000.0
1136.154,971585000.0
1139.23,1012560000.0
1140.0,1022290000.0
1141.539,1042040000.0
1144.617,1081210000.0
1145.0,1086250000.0
1145.766,1095570000.0
1147.297,1115190000.0
1150.0,1150280000.0
1152.703,1186700000.0
1155.406,1223540000.0
1158.109,1261100000.0
1160.812,1300840000.0
1163.516,1342780000.0
1165.769,1381390000.0
1170.276,1469220000.0
1174.783,1570740000.0
1179.29,1684270000.0
1181.538,1744760000.0
1185.628,1861160000.0
1189.718,1985070000.0
1191.767,2049430000.0
1193.816,2115490000.0
1195.866,2182870000.0
1197.915,2251720000.0
1199.964,2323000000.0
1202.014,2395410000.0
1204.063,2468410000.0
1206.113,2539380000.0
1208.162,2605330000.0
1210.211,2664270000.0
1212.261,2716710000.0
1214.31,2782930000.0
1214.822,2803360000.0
1215.335,2823970000.0
1215.463,2827430000.0
1215.591,2829930000.0
1215.623,2831300000.0
1215.655,2832680000.0
1215.663,2833020000.0
1215.67,2833320000.0
1215.679,2833700000.0
1215.687,2834050000.0
1215.719,2835430000.0
1215.751,2836830000.0
1215.815,2841040000.0
1215.879,2846570000.0
1216.007,2855950000.0
1216.263,2872960000.0
1216.52,2891060000.0
1217.032,2929760000.0
1218.056,3011940000.0
1219.081,3088420000.0
1221.131,3214160000.0
1223.18,3324840000.0
1225.229,3437300000.0
1227.279,3546500000.0
1229.328,3657950000.0
1231.378,3773560000.0
1233.427,3892070000.0
1235.476,4013390000.0
1237.526,4137490000.0
1239.575,4263930000.0
1241.625,4393570000.0
1245.725,4663870000.0
1249.825,4949800000.0
1250.812,5020230000.0
1252.786,5165520000.0
1256.733,5465840000.0
1260.0,5728550000.0
1263.267,6007220000.0
1265.0,6158880000.0
1268.466,6467960000.0
1270.0,6611050000.0
1273.068,6905610000.0
1275.0,7094690000.0
1278.863,7496930000.0
1280.0,7617800000.0
1282.273,7862580000.0
1285.0,8157640000.0
1287.727,8464750000.0
1290.0,8729320000.0
1294.547,9287800000.0
1295.0,9345800000.0
1295.906,9462830000.0
1297.719,9699340000.0
1300.0,10001500000.0
1305.0,10679100000.0
1310.0,11396000000.0
1315.0,12156000000.0
1320.0,12960300000.0
1325.0,13812800000.0
1330.0,14717300000.0
1335.0,15672900000.0
1340.0,16676200000.0
1345.0,17729700000.0
1350.0,18841000000.0
1355.0,20017500000.0
1360.0,21250500000.0
1365.0,22549300000.0
1370.0,23919700000.0
1374.231,25128900000.0
1378.462,26387700000.0
1379.231,26622500000.0
1380.0,26859100000.0
1381.538,27337900000.0
1384.614,28317800000.0
1385.0,28442800000.0
1385.771,28694100000.0
1387.314,29202200000.0
1390.0,30104600000.0
1395.0,31848500000.0
1400.0,33678200000.0
1405.0,35599000000.0
1410.0,37617500000.0
1415.0,39731800000.0
1420.0,41940300000.0
1425.0,44252100000.0
1430.0,46672200000.0
1435.0,49193300000.0
1440.0,51812100000.0
1445.0,54539000000.0
1450.0,57382700000.0
1455.0,60345900000.0
1460.0,63437400000.0
1465.0,66660700000.0
1470.0,70045300000.0
1473.462,72485000000.0
1476.923,75004600000.0
1478.462,76152100000.0
1480.0,77316800000.0
1483.076,79700200000.0
1485.0,81228400000.0
1488.848,84366900000.0
1490.0,85325800000.0
1492.304,87267600000.0
1495.0,89574600000.0
1500.0,93942800000.0
1505.0,98450500000.0
1510.0,103164000000.0
1515.0,108133000000.0
1520.0,113332000000.0
1525.0,118639000000.0
1530.0,123924000000.0
1535.0,129183000000.0
1540.0,134554000000.0
1545.0,140191000000.0
1550.0,146183000000.0
1555.0,152528000000.0
1560.0,159151000000.0
1565.0,165935000000.0
1570.0,172793000000.0
1572.692,176515000000.0
1575.385,180270000000.0
1577.692,183529000000.0
1580.0,186841000000.0
1584.616,193666000000.0
1585.0,194250000000.0
1585.768,195421000000.0
1587.304,197793000000.0
1590.0,202055000000.0
1595.0,210332000000.0
1600.0,219134000000.0
1605.0,228510000000.0
1610.0,238511000000.0
1615.0,249186000000.0
1620.0,260585000000.0
1625.0,272747000000.0
1630.0,285696000000.0
1635.0,299443000000.0
1640.0,313974000000.0
1645.0,329213000000.0
1650.0,345098000000.0
1655.0,361597000000.0
1660.0,378792000000.0
1665.0,396670000000.0
1670.0,415282000000.0
1671.923,422605000000.0
1673.846,430100000000.0
1676.923,442453000000.0
1680.0,455274000000.0
1685.0,477098000000.0
1690.0,500622000000.0
1695.0,526852000000.0
1700.0,556661000000.0
1702.5,573612000000.0
1705.0,592912000000.0
1710.0,637533000000.0
1712.5,664054000000.0
1715.0,694776000000.0
1717.5,729750000000.0
1720.0,769869000000.0
1722.5,811957000000.0
1725.0,864089000000.0
1727.5,918570000000.0
1730.0,984368000000.0
1732.5,1053120000000.0
1735.0,1130920000000.0
1737.5,1212250000000.0
1740.0,1307730000000.0
1742.5,1405010000000.0
1745.0,1515800000000.0
1747.5,1630520000000.0
1750.0,1756710000000.0
1755.0,2023350000000.0
1757.5,2163970000000.0
1760.0,2316210000000.0
1761.154,2385940000000.0
1763.462,2524910000000.0
1768.078,2820280000000.0
1772.308,3102570000000.0
1780.767,3680710000000.0
1797.686,4844260000000.0
1814.604,6011550000000.0
1821.539,6489740000000.0
1835.409,7463360000000.0
1849.278,8466120000000.0
1863.148,9516060000000.0
1870.769,10118600000000.0
1886.011,11382000000000.0
1901.254,12731300000000.0
1916.496,14172900000000.0
1920.0,14518200000000.0
1927.007,15225000000000.0
1941.022,16707400000000.0
1955.037,18276100000000.0
1969.051,19931900000000.0
1969.231,19953700000000.0
1969.731,20014700000000.0
1970.731,20137000000000.0
1972.731,20381500000000.0
1976.731,20877800000000.0
1984.731,21892100000000.0
2000.731,23998900000000.0
2016.731,26197300000000.0
2018.462,26446900000000.0
2021.924,26944700000000.0
2028.849,27943600000000.0
2042.697,30042800000000.0
2056.546,32250800000000.0
2067.692,34123600000000.0
2078.838,36091100000000.0
2089.984,38134200000000.0
2101.13,40281400000000.0
2112.276,42470000000000.0
2116.923,43416600000000.0
2126.218,45305900000000.0
2144.806,49166100000000.0
2163.395,53026300000000.0
2166.154,53573100000000.0
2171.672,54679800000000.0
2182.707,56904500000000.0
2193.742,59012900000000.0
2204.777,61127900000000.0
2215.385,63129600000000.0
2225.993,65165900000000.0
2236.601,67238800000000.0
2247.209,69393200000000.0
2257.817,71617000000000.0
2264.615,73105600000000.0
2278.212,76198300000000.0
2291.808,79559500000000.0
2305.405,83192400000000.0
2313.846,85653100000000.0
2330.728,91103300000000.0
2347.61,97350000000000.0
2363.077,103815000000000.0
2378.544,110981000000000.0
2394.011,118592000000000.0
2409.479,126460000000000.0
2412.307,127916000000000.0
2417.963,130887000000000.0
2429.276,136526000000000.0
2440.588,142264000000000.0
2451.901,147437000000000.0
2461.538,151917000000000.0
2480.813,159976000000000.0
2500.088,167199000000000.0
2510.769,170803000000000.0
2521.45,174387000000000.0
2532.131,177662000000000.0
2542.812,180900000000000.0
2553.494,183944000000000.0
2560.0,185804000000000.0
2573.013,189301000000000.0
2586.025,192728000000000.0
2599.038,196063000000000.0
2612.051,199295000000000.0
2625.063,202482000000000.0
2638.076,205610000000000.0
2651.089,208684000000000.0
2658.461,210415000000000.0
2673.205,213814000000000.0
2687.949,217291000000000.0
2702.693,220804000000000.0
2717.438,224051000000000.0
2732.182,227260000000000.0
2746.926,230450000000000.0
2756.923,232603000000000.0
2776.918,236862000000000.0
2796.912,241084000000000.0
2816.907,245267000000000.0
2836.902,249408000000000.0
2855.385,253197000000000.0
2873.868,256933000000000.0
2892.352,260629000000000.0
2910.835,264284000000000.0
2929.319,267898000000000.0
2945.1,270949000000000.0
2953.846,272626000000000.0
2971.338,275932000000000.0
2988.829,279198000000000.0
3006.321,282422000000000.0
3023.813,285604000000000.0
3041.304,288742000000000.0
3052.308,290694000000000.0
3063.312,292622000000000.0
3074.315,294532000000000.0
3085.319,296424000000000.0
3096.323,298298000000000.0
3107.326,300154000000000.0
3118.33,301992000000000.0
3129.334,303812000000000.0
3140.337,305614000000000.0
3150.769,307305000000000.0
3161.201,308978000000000.0
3171.632,310635000000000.0
3182.064,312276000000000.0
3187.7,313155000000000.0
3198.972,314898000000000.0
3210.244,316621000000000.0
3221.516,318324000000000.0
3232.788,320008000000000.0
3244.06,321671000000000.0
3249.231,322428000000000.0
3259.573,323928000000000.0
3269.916,325411000000000.0
3280.258,326878000000000.0
3290.6,328327000000000.0
3300.942,329760000000000.0
3311.285,331175000000000.0
3321.627,332574000000000.0
3331.969,333955000000000.0
3342.312,335320000000000.0
3347.692,336023000000000.0
3358.453,337416000000000.0
3369.213,338790000000000.0
3379.974,340147000000000.0
3390.735,341484000000000.0
3401.496,342804000000000.0
3412.256,344105000000000.0
3423.017,345387000000000.0
3433.778,346651000000000.0
3444.539,347897000000000.0
3446.154,348083000000000.0
3449.385,348451000000000.0
3455.847,349184000000000.0
3468.771,350630000000000.0
3481.695,352049000000000.0
3494.618,353442000000000.0
3507.542,354809000000000.0
3520.466,356150000000000.0
3533.39,357465000000000.0
3544.615,358586000000000.0
3555.84,359684000000000.0
3567.065,360763000000000.0
3578.29,361822000000000.0
3589.515,362862000000000.0
3595.868,363441000000000.0
3608.573,364580000000000.0
3621.278,365695000000000.0
3633.983,366785000000000.0
3646.5,367835000000000.0
3647.0,367876000000000.0
3647.12,367886000000000.0
3647.22,367465000000000.0
3647.42,367482000000000.0
3647.819,367516000000000.0
3648.0,367531000000000.0
3648.362,367562000000000.0
3649.085,367624000000000.0
3650.533,367747000000000.0
3653.427,367991000000000.0
3659.216,368475000000000.0
3665.005,368955000000000.0
3668.675,369256000000000.0
3676.014,369853000000000.0
3682.807,370399000000000.0
3686.832,370719000000000.0
3690.13,370979000000000.0
3691.554,371090000000000.0
3694.402,371314000000000.0
3696.486,371477000000000.0
3697.152,371527000000000.0
3698.484,371632000000000.0
3701.148,371838000000000.0
3702.843,371968000000000.0
3703.853,372043000000000.0
3705.0,372134000000000.0
3707.294,372309000000000.0
3709.2,372455000000000.0
3711.971,372659000000000.0
3715.556,372934000000000.0
3721.913,373397000000000.0
3721.938,373399000000000.0
3721.988,373403000000000.0
3722.038,373408000000000.0
3722.088,373413000000000.0
3722.138,373418000000000.0
3722.188,373423000000000.0
3722.238,373428000000000.0
3722.288,373433000000000.0
3722.338,373437000000000.0
3722.388,373442000000000.0
3722.438,373446000000000.0
3722.489,373450000000000.0
3722.539,373454000000000.0
3722.589,373458000000000.0
3722.639,373461000000000.0
3722.689,373465000000000.0
3722.739,373469000000000.0
3722.789,373473000000000.0
3722.839,373477000000000.0
3722.889,373480000000000.0
3722.939,373484000000000.0
3722.989,373488000000000.0
3723.039,373492000000000.0
3723.089,373495000000000.0
3723.139,373499000000000.0
3723.189,373503000000000.0
3723.239,373506000000000.0
3723.289,373511000000000.0
3723.339,373514000000000.0
3723.389,373518000000000.0
3723.439,373521000000000.0
3723.49,373525000000000.0
3723.54,373529000000000.0
3723.59,373533000000000.0
3723.64,373536000000000.0
3723.69,373540000000000.0
3723.74,373543000000000.0
3723.79,373548000000000.0
3723.84,373551000000000.0
3723.89,373555000000000.0
3723.94,373558000000000.0
3723.99,373562000000000.0
3724.04,373566000000000.0
3724.09,373570000000000.0
3724.14,373573000000000.0
3724.19,373577000000000.0
3724.24,373581000000000.0
3724.29,373585000000000.0
3724.34,373588000000000.0
3724.39,373592000000000.0
3724.44,373595000000000.0
3724.49,373599000000000.0
3724.541,373603000000000.0
3724.591,373606000000000.0
3724.641,373610000000000.0
3724.691,373614000000000.0
3724.741,373618000000000.0
3724.791,373621000000000.0
3724.841,373625000000000.0
3724.891,373629000000000.0
3724.941,373632000000000.0
3724.991,373636000000000.0
3725.041,373640000000000.0
3725.091,373643000000000.0
3725.141,373647000000000.0
3725.191,373651000000000.0
3725.241,373654000000000.0
3725.291,373658000000000.0
3725.341,373662000000000.0
3725.391,373665000000000.0
3725.441,373669000000000.0
3725.491,373673000000000.0
3725.542,373677000000000.0
3725.592,373680000000000.0
3725.642,373684000000000.0
3725.692,373688000000000.0
3725.742,373691000000000.0
3725.792,373695000000000.0
3725.842,373699000000000.0
3725.892,373703000000000.0
3725.942,373706000000000.0
3725.992,373710000000000.0
3726.042,373713000000000.0
3726.092,373717000000000.0
3726.142,373721000000000.0
3726.192,373725000000000.0
3726.242,373728000000000.0
3726.292,373732000000000.0
3726.342,373735000000000.0
3726.392,373739000000000.0
3726.442,373743000000000.0
3726.492,373746000000000.0
3726.542,373750000000000.0
