Wavelength,Flux
900.0,60646800.0
903.442,66408900.0
904.998,69173100.0
906.554,72041200.0
908.11,75016500.0
909.667,78105000.0
910.703,80223300.0
911.74,82395600.0
911.84,82607900.0
912.0,82948500.0
912.31,83612100.0
912.779,84625300.0
913.717,86685100.0
914.335,88124400.0
915.329,90331400.0
915.824,91478600.0
915.892,91637200.0
915.96,92059400.0
916.028,93343200.0
916.096,94270900.0
916.164,94540900.0
916.232,93958900.0
916.3,92801300.0
916.365,92746700.0
916.429,92898600.0
916.558,93450200.0
916.622,95371200.0
916.686,97405000.0
916.751,98677300.0
916.815,99298200.0
916.879,99173700.0
916.944,98146800.0
917.008,96001800.0
917.072,94466900.0
917.127,94561000.0
917.181,94691600.0
917.29,94993000.0
917.369,97910300.0
917.448,101962000.0
917.527,104857000.0
917.606,106563000.0
917.685,107273000.0
917.765,106913000.0
917.844,104929000.0
917.923,101005000.0
917.963,98638400.0
918.002,97035400.0
918.042,96781900.0
918.081,96879000.0
918.121,96976000.0
918.129,96996400.0
918.179,97119200.0
918.229,97251300.0
918.279,98696600.0
918.329,102136000.0
918.379,105992000.0
918.429,109444000.0
918.479,112216000.0
918.529,114436000.0
918.579,116112000.0
918.679,118499000.0
918.729,119201000.0
918.779,119587000.0
918.879,119239000.0
918.929,118321000.0
918.979,116755000.0
919.004,115698000.0
919.054,112749000.0
919.105,109001000.0
919.155,104561000.0
919.206,100917000.0
919.231,99942200.0
919.256,99806200.0
919.307,99929700.0
919.351,100042000.0
919.44,100267000.0
919.484,101063000.0
919.529,104169000.0
919.573,108651000.0
919.618,113331000.0
919.662,117656000.0
919.707,121404000.0
919.751,124591000.0
919.796,127211000.0
919.885,131269000.0
919.974,134251000.0
920.063,136351000.0
920.152,137748000.0
920.241,138421000.0
920.33,138216000.0
920.419,136802000.0
920.463,135470000.0
920.508,133596000.0
920.56,130661000.0
920.612,126764000.0
920.638,124337000.0
920.664,121641000.0
920.716,115732000.0
920.768,109518000.0
920.821,105056000.0
920.873,103956000.0
920.925,104092000.0
920.963,104192000.0
921.039,104392000.0
921.077,104601000.0
921.116,106533000.0
921.154,110313000.0
921.192,115287000.0
921.268,125490000.0
921.344,134459000.0
921.421,141848000.0
921.497,147616000.0
921.573,152363000.0
921.65,156268000.0
921.726,159451000.0
921.802,162021000.0
921.879,164138000.0
922.031,167305000.0
922.117,168446000.0
922.203,169042000.0
922.289,168979000.0
922.375,168033000.0
922.461,165991000.0
922.506,164348000.0
922.551,162189000.0
922.597,159381000.0
922.642,155927000.0
922.688,151869000.0
922.733,147197000.0
922.779,141653000.0
922.824,135581000.0
922.87,128789000.0
922.895,124928000.0
922.946,117513000.0
922.992,112178000.0
923.042,109809000.0
923.089,109903000.0
923.114,109972000.0
923.138,110038000.0
923.144,110055000.0
923.15,110071000.0
923.156,110088000.0
923.162,110104000.0
923.187,110173000.0
923.211,110239000.0
923.261,110441000.0
923.308,113080000.0
923.358,119320000.0
923.405,126836000.0
923.455,135292000.0
923.555,151054000.0
923.605,158057000.0
923.655,164753000.0
923.705,170685000.0
923.755,176088000.0
923.794,179848000.0
923.872,186660000.0
923.95,192426000.0
924.028,197176000.0
924.183,205131000.0
924.338,211324000.0
924.436,214713000.0
924.633,220084000.0
924.688,221257000.0
924.798,223153000.0
924.939,224551000.0
925.064,224558000.0
925.189,222953000.0
925.314,219036000.0
925.439,212133000.0
925.509,206608000.0
925.579,199725000.0
925.649,191055000.0
925.719,180892000.0
925.789,169245000.0
925.859,156842000.0
925.97,136047000.0
926.018,127606000.0
926.067,121236000.0
926.116,118566000.0
926.164,118665000.0
926.189,118739000.0
926.214,118813000.0
926.22,118830000.0
926.226,118848000.0
926.232,118866000.0
926.238,118884000.0
926.263,118958000.0
926.287,119029000.0
926.337,119226000.0
926.385,122204000.0
926.435,129205000.0
926.482,137904000.0
926.532,147982000.0
926.582,158136000.0
926.682,178565000.0
926.777,197104000.0
926.873,213973000.0
926.969,228904000.0
927.064,241977000.0
927.16,253334000.0
927.255,262908000.0
927.263,263641000.0
927.313,268152000.0
927.413,276195000.0
927.513,283169000.0
927.613,289294000.0
927.713,294793000.0
927.875,302867000.0
928.037,309682000.0
928.199,315623000.0
928.487,324163000.0
928.775,330063000.0
928.919,331700000.0
929.063,332158000.0
929.097,332057000.0
929.166,331556000.0
929.303,329192000.0
929.441,324532000.0
929.578,316809000.0
929.642,311812000.0
929.706,305923000.0
929.77,298952000.0
929.834,290761000.0
929.898,281126000.0
929.962,270262000.0
930.026,257855000.0
930.09,244750000.0
930.098,242923000.0
930.148,231752000.0
930.248,208040000.0
930.348,184030000.0
930.419,167614000.0
930.491,151973000.0
930.54,142419000.0
930.589,135384000.0
930.638,132572000.0
930.687,132702000.0
930.711,132781000.0
930.736,132863000.0
930.742,132882000.0
930.748,132902000.0
930.754,132922000.0
930.76,132941000.0
930.785,133023000.0
930.809,133101000.0
930.859,133301000.0
930.907,136446000.0
930.957,144068000.0
931.005,153913000.0
931.055,165360000.0
931.105,177226000.0
931.205,202496000.0
931.305,229191000.0
931.398,253938000.0
931.491,277503000.0
931.584,299775000.0
931.677,319701000.0
931.77,337639000.0
931.79,341143000.0
931.84,349568000.0
931.94,364989000.0
932.04,378669000.0
932.14,390555000.0
932.24,401190000.0
932.44,419626000.0
932.64,434537000.0
932.84,447574000.0
933.033,458665000.0
933.419,477260000.0
933.805,492725000.0
934.192,505177000.0
934.276,507616000.0
934.445,512169000.0
934.782,519691000.0
935.119,524526000.0
935.456,525436000.0
935.514,524939000.0
935.63,523281000.0
935.862,516840000.0
935.977,511477000.0
936.093,504275000.0
936.209,494093000.0
936.325,481826000.0
936.441,466824000.0
936.557,448339000.0
936.655,430192000.0
936.753,408458000.0
936.851,384206000.0
936.949,357171000.0
937.048,327321000.0
937.146,296386000.0
937.148,295688000.0
937.198,279640000.0
937.298,248026000.0
937.398,218328000.0
937.498,191508000.0
937.544,179882000.0
937.59,169466000.0
937.636,161487000.0
937.642,160749000.0
937.692,157437000.0
937.741,157606000.0
937.766,157701000.0
937.791,157797000.0
937.797,157820000.0
937.803,157842000.0
937.809,157865000.0
937.815,157888000.0
937.84,157984000.0
937.865,158079000.0
937.915,158296000.0
937.964,162012000.0
938.014,170815000.0
938.062,182151000.0
938.112,195424000.0
938.162,209239000.0
938.262,239227000.0
938.312,255424000.0
938.362,272151000.0
938.458,305373000.0
938.65,371639000.0
938.752,404146000.0
938.853,434443000.0
938.954,462605000.0
939.056,487517000.0
939.157,510595000.0
939.259,531594000.0
939.462,568193000.0
939.563,583938000.0
939.665,598174000.0
939.867,622799000.0
940.07,643303000.0
940.273,661002000.0
940.434,673588000.0
940.756,696883000.0
941.399,736680000.0
941.707,751982000.0
942.015,765788000.0
942.631,790895000.0
942.894,800850000.0
943.42,820083000.0
943.773,831811000.0
944.479,852582000.0
944.625,856065000.0
944.917,861827000.0
945.478,869757000.0
946.039,871521000.0
946.6,861480000.0
946.84,851566000.0
947.079,838211000.0
947.318,820370000.0
947.558,795847000.0
947.797,763046000.0
948.036,719413000.0
948.276,664101000.0
948.515,596608000.0
948.597,570209000.0
948.68,541674000.0
948.73,524022000.0
948.83,486243000.0
948.93,446371000.0
949.08,384939000.0
949.23,324376000.0
949.38,269629000.0
949.43,253285000.0
949.48,237402000.0
949.53,223481000.0
949.58,213234000.0
949.63,209267000.0
949.68,209501000.0
949.705,209624000.0
949.73,209747000.0
949.737,209781000.0
949.743,209811000.0
949.749,209841000.0
949.755,209870000.0
949.781,209999000.0
949.806,210122000.0
949.856,210383000.0
949.906,214873000.0
949.956,225722000.0
950.006,240336000.0
950.056,257024000.0
950.106,274277000.0
950.156,292606000.0
950.206,311918000.0
950.306,353141000.0
950.406,396750000.0
950.456,418622000.0
950.556,463138000.0
950.756,548587000.0
950.806,568359000.0
950.906,607177000.0
951.006,642940000.0
951.106,676960000.0
951.307,739219000.0
951.507,794791000.0
951.707,842881000.0
951.907,884820000.0
952.107,921822000.0
952.307,954091000.0
952.407,969074000.0
952.606,997269000.0
953.004,1047180000.0
953.402,1087310000.0
953.8,1121930000.0
954.008,1138020000.0
954.424,1167990000.0
955.257,1219860000.0
955.609,1238930000.0
956.313,1275370000.0
957.211,1317180000.0
958.812,1389290000.0
960.413,1460130000.0
960.776,1477540000.0
961.14,1493640000.0
961.376,1504120000.0
961.611,1514600000.0
962.081,1535100000.0
963.021,1576730000.0
963.251,1586980000.0
963.71,1607410000.0
964.629,1648470000.0
964.89,1660220000.0
965.412,1683880000.0
966.456,1730550000.0
966.53,1733890000.0
966.678,1740580000.0
966.975,1753900000.0
967.567,1780430000.0
968.169,1806020000.0
969.372,1854580000.0
969.809,1870540000.0
970.683,1897380000.0
971.065,1905520000.0
971.448,1892680000.0
971.653,1862790000.0
971.858,1835760000.0
971.908,1829700000.0
972.008,1816690000.0
972.108,1790910000.0
972.208,1767220000.0
972.268,1754520000.0
972.37,1734940000.0
972.473,1716790000.0
972.499,1712460000.0
972.524,1708370000.0
972.531,1707230000.0
972.537,1706260000.0
972.543,1705280000.0
972.55,1704170000.0
972.575,1700200000.0
972.601,1696150000.0
972.653,1688240000.0
972.703,1685440000.0
972.803,1681570000.0
972.806,1681450000.0
972.856,1679600000.0
972.956,1676050000.0
973.156,1669220000.0
973.216,1667260000.0
973.336,1665340000.0
973.456,1676150000.0
973.576,1687100000.0
973.626,1691720000.0
973.726,1701080000.0
973.926,1720130000.0
974.326,1770810000.0
974.726,1827880000.0
975.265,1905270000.0
975.804,1975510000.0
976.344,2036580000.0
976.905,2094580000.0
978.028,2217180000.0
978.544,2269960000.0
979.576,2373680000.0
980.184,2438110000.0
981.399,2547850000.0
981.823,2579590000.0
982.67,2641490000.0
983.463,2699400000.0
985.048,2821730000.0
985.102,2825740000.0
985.209,2833830000.0
985.423,2850100000.0
985.851,2882810000.0
986.708,2950680000.0
986.742,2953500000.0
986.81,2959030000.0
986.947,2970190000.0
987.221,2992560000.0
987.767,3037300000.0
988.381,3087510000.0
989.608,3188110000.0
990.021,3223200000.0
990.847,3292950000.0
991.66,3359720000.0
993.287,3514350000.0
993.3,3515750000.0
993.35,3521050000.0
993.45,3531620000.0
993.65,3553090000.0
993.85,3574680000.0
994.05,3596380000.0
994.25,3617370000.0
994.45,3636970000.0
994.65,3656250000.0
994.85,3675880000.0
995.05,3695520000.0
995.25,3714440000.0
995.45,3733520000.0
995.65,3752800000.0
995.85,3772540000.0
996.05,3792610000.0
996.25,3812990000.0
996.45,3833820000.0
996.65,3856120000.0
997.05,3901920000.0
997.849,3995510000.0
999.448,4180100000.0
1000.0,4253230000.0
1001.103,4382090000.0
1001.912,4468670000.0
1003.53,4648660000.0
1003.824,4681880000.0
1004.412,4747510000.0
1005.553,4865240000.0
1007.282,5036430000.0
1009.011,5191550000.0
1010.74,5301300000.0
1012.469,5367440000.0
1013.333,5364240000.0
1014.198,5342710000.0
1014.249,5340690000.0
1014.349,5336700000.0
1014.549,5328310000.0
1014.749,5318390000.0
1014.949,5308050000.0
1015.149,5295390000.0
1015.349,5282090000.0
1015.549,5267830000.0
1015.749,5251980000.0
1015.928,5237790000.0
1016.286,5205720000.0
1017.002,5133580000.0
1017.657,5058820000.0
1018.968,4901010000.0
1019.386,4844590000.0
1020.223,4721820000.0
1021.115,4562630000.0
1021.561,4467450000.0
1022.007,4353900000.0
1022.426,4217530000.0
1022.844,4047410000.0
1023.262,3844510000.0
1023.681,3577680000.0
1023.89,3416020000.0
1024.099,3214870000.0
1024.309,2987510000.0
1024.518,2753370000.0
1024.574,2676350000.0
1024.63,2599080000.0
1024.742,2444110000.0
1024.855,2283620000.0
1024.967,2110090000.0
1025.006,2047390000.0
1025.084,1925830000.0
1025.162,1794590000.0
1025.24,1657660000.0
1025.395,1384870000.0
1025.438,1313750000.0
1025.523,1178140000.0
1025.546,1146130000.0
1025.596,1095060000.0
1025.646,1079320000.0
1025.654,1079250000.0
1025.681,1079750000.0
1025.708,1080320000.0
1025.715,1080470000.0
1025.72,1080580000.0
1025.722,1080620000.0
1025.729,1080770000.0
1025.736,1080920000.0
1025.763,1081500000.0
1025.79,1082080000.0
1025.844,1089490000.0
1025.871,1106400000.0
1025.898,1134090000.0
1025.925,1169650000.0
1025.952,1210350000.0
1026.005,1300540000.0
1026.056,1388050000.0
1026.106,1477400000.0
1026.156,1570010000.0
1026.206,1663900000.0
1026.256,1758210000.0
1026.306,1851730000.0
1026.356,1943290000.0
1026.406,2030460000.0
1026.438,2083960000.0
1026.501,2189870000.0
1026.628,2398300000.0
1026.749,2584310000.0
1026.87,2761890000.0
1026.92,2835250000.0
1026.97,2907950000.0
1027.02,2975750000.0
1027.07,3036260000.0
1027.12,3096080000.0
1027.17,3157170000.0
1027.22,3217660000.0
1027.27,3277700000.0
1027.32,3338120000.0
1027.37,3398580000.0
1027.421,3459350000.0
1027.471,3521250000.0
1027.521,3579420000.0
1027.571,3627220000.0
1027.621,3674440000.0
1027.671,3721630000.0
1027.721,3768180000.0
1027.771,3813800000.0
1027.821,3858630000.0
1027.871,3903630000.0
1027.921,3949080000.0
1027.971,3995200000.0
1028.021,4037520000.0
1028.071,4074350000.0
1028.121,4111000000.0
1028.171,4147620000.0
1028.221,4184430000.0
1028.271,4221140000.0
1028.321,4257830000.0
1028.371,4294560000.0
1028.422,4331190000.0
1028.472,4367680000.0
1028.522,4401500000.0
1028.572,4431180000.0
1028.6,4447920000.0
1028.657,4481840000.0
1028.77,4549990000.0
1028.996,4689380000.0
1029.45,4924670000.0
1029.903,5132160000.0
1030.329,5311650000.0
1031.182,5674670000.0
1032.058,6045680000.0
1032.922,6376800000.0
1033.787,6699610000.0
1034.651,6974820000.0
1035.516,7262930000.0
1035.948,7455220000.0
1036.38,7683270000.0
1036.813,7963730000.0
1037.245,8285000000.0
1037.296,8324750000.0
1037.346,8364620000.0
1037.396,8405570000.0
1037.446,8447290000.0
1037.496,8489970000.0
1037.546,8524680000.0
1037.596,8559080000.0
1037.646,8594020000.0
1037.696,8629440000.0
1037.746,8665360000.0
1037.797,8701830000.0
1037.847,8738570000.0
1037.897,8776090000.0
1037.947,8814290000.0
1037.997,8853080000.0
1038.047,8887900000.0
1038.097,8922930000.0
1038.147,8958370000.0
1038.197,8994270000.0
1038.247,9030760000.0
1038.297,9067790000.0
1038.347,9105290000.0
1038.397,9143360000.0
1038.447,9181860000.0
1038.497,9220700000.0
1038.547,9256680000.0
1038.597,9292840000.0
1038.647,9329360000.0
1038.697,9366300000.0
1038.747,9403720000.0
1038.797,9441370000.0
1038.848,9479820000.0
1038.898,9519330000.0
1038.948,9559260000.0
1038.975,9581320000.0
1039.03,9620780000.0
1039.139,9692750000.0
1039.358,9840330000.0
1039.795,10100900000.0
1040.67,10599900000.0
1040.704,10620200000.0
1040.771,10661300000.0
1040.906,10744100000.0
1041.176,10908300000.0
1041.715,11230000000.0
1042.433,11633000000.0
1043.87,12459400000.0
1044.162,12643100000.0
1044.747,13016300000.0
1045.892,13749700000.0
1047.621,14873300000.0
1048.81,15655200000.0
1050.0,16575900000.0
1050.595,16934500000.0
1051.19,17260300000.0
1052.38,17914500000.0
1054.76,19301200000.0
1055.0,19466300000.0
1055.48,19752900000.0
1056.441,20220600000.0
1057.402,20546800000.0
1058.363,20937100000.0
1059.182,21492900000.0
1060.0,22262700000.0
1060.818,23213600000.0
1061.637,24328100000.0
1062.455,25716900000.0
1063.273,27385600000.0
1064.91,30755200000.0
1065.0,30939500000.0
1065.18,31277000000.0
1065.539,31967400000.0
1066.258,33239500000.0
1067.695,35678500000.0
1068.848,37201700000.0
1070.0,38178500000.0
1072.305,40347300000.0
1073.457,41293500000.0
1074.609,41862000000.0
1075.0,42012100000.0
1075.781,42477800000.0
1076.562,43374200000.0
1077.344,44863500000.0
1077.734,45875900000.0
1078.125,47117300000.0
1078.516,48620300000.0
1078.906,50411100000.0
1079.297,52397000000.0
1079.688,54615700000.0
1080.0,56626500000.0
1080.625,61070600000.0
1081.25,66098700000.0
1081.538,68636600000.0
1082.114,73797300000.0
1083.077,82098300000.0
1085.003,98989000000.0
1085.771,106741000000.0
1086.538,115208000000.0
1087.305,124879000000.0
1088.073,135348000000.0
1089.607,154817000000.0
1090.0,160739000000.0
1090.393,166950000000.0
1091.178,180947000000.0
1091.964,196859000000.0
1092.356,205712000000.0
1092.749,215693000000.0
1093.534,235607000000.0
1094.267,251531000000.0
1095.0,269494000000.0
1095.733,290115000000.0
1096.466,313579000000.0
1097.199,340436000000.0
1097.565,355588000000.0
1097.932,371965000000.0
1098.115,377352000000.0
1098.298,383161000000.0
1098.481,389191000000.0
1098.665,395162000000.0
1098.848,401437000000.0
1099.031,407705000000.0
1099.214,414404000000.0
1099.397,421259000000.0
1099.581,428011000000.0
1099.764,435459000000.0
1099.947,442557000000.0
1100.0,444782000000.0
1100.106,448855000000.0
1100.317,458245000000.0
1100.74,477446000000.0
1101.586,519589000000.0
1102.009,534606000000.0
1102.431,550622000000.0
1103.277,586077000000.0
1104.123,626213000000.0
1104.969,671590000000.0
1105.0,672480000000.0
1105.063,674654000000.0
1105.189,679070000000.0
1105.441,687975000000.0
1105.945,706376000000.0
1106.953,749509000000.0
1107.96,795834000000.0
1108.968,826529000000.0
1109.976,851397000000.0
1110.0,852094000000.0
1110.05,853440000000.0
1110.1,854283000000.0
1110.15,855667000000.0
1110.2,857080000000.0
1110.25,858482000000.0
1110.3,859893000000.0
1110.35,861402000000.0
1110.4,862474000000.0
1110.45,863958000000.0
1110.5,865439000000.0
1110.551,866387000000.0
1110.601,868028000000.0
1110.651,869539000000.0
1110.701,871194000000.0
1110.751,872737000000.0
1110.801,874300000000.0
1110.851,875878000000.0
1110.901,876924000000.0
1110.951,878568000000.0
1111.001,880170000000.0
1111.051,881224000000.0
1111.101,881738000000.0
1111.151,881358000000.0
1111.201,881345000000.0
1111.251,881318000000.0
1111.301,881280000000.0
1111.351,881250000000.0
1111.401,881228000000.0
1111.451,881211000000.0
1111.501,881254000000.0
1111.552,881259000000.0
1111.602,881356000000.0
1111.652,881548000000.0
1111.702,881181000000.0
1111.752,881236000000.0
1111.802,881339000000.0
1111.852,881407000000.0
1111.902,881504000000.0
1111.952,881591000000.0
1112.002,881686000000.0
1112.052,881798000000.0
1112.102,881914000000.0
1112.152,881657000000.0
1112.202,881891000000.0
1112.252,881738000000.0
1112.302,881893000000.0
1112.352,882078000000.0
1112.402,882261000000.0
1112.452,882449000000.0
1112.502,882699000000.0
1112.552,882947000000.0
1112.603,882779000000.0
1112.653,883058000000.0
1112.703,883347000000.0
1112.753,883655000000.0
1112.803,883962000000.0
1112.853,884297000000.0
1112.903,884663000000.0
1112.953,884517000000.0
1113.003,884630000000.0
1113.053,884785000000.0
1113.103,884937000000.0
1113.153,885125000000.0
1113.203,885296000000.0
1113.253,885472000000.0
1113.303,884961000000.0
1113.353,885214000000.0
1113.403,885434000000.0
1113.453,885639000000.0
1113.503,885852000000.0
1113.553,885755000000.0
1113.604,885476000000.0
1113.654,885709000000.0
1113.704,885948000000.0
1113.754,886224000000.0
1113.804,886477000000.0
1113.854,886725000000.0
1113.904,886524000000.0
1113.954,886780000000.0
1114.004,887053000000.0
1114.054,886492000000.0
1114.104,885730000000.0
1114.154,884975000000.0
1114.204,884231000000.0
1114.254,883481000000.0
1114.304,882738000000.0
1114.354,881775000000.0
1114.404,881065000000.0
1114.454,880000000000.0
1114.504,879273000000.0
1114.554,878550000000.0
1114.604,877831000000.0
1114.655,877184000000.0
1114.705,876484000000.0
1114.755,875779000000.0
1114.805,874762000000.0
1114.855,874069000000.0
1114.905,873401000000.0
1114.955,872762000000.0
1115.0,872102000000.0
1115.09,870225000000.0
1115.271,866908000000.0
1115.632,860048000000.0
1116.355,847963000000.0
1117.078,833737000000.0
1117.8,807412000000.0
1119.246,754412000000.0
1119.623,735453000000.0
1120.0,716851000000.0
1120.754,676862000000.0
1121.509,629522000000.0
1122.263,581828000000.0
1122.64,559614000000.0
1123.018,537649000000.0
1123.395,508461000000.0
1123.772,481022000000.0
1124.149,455307000000.0
1124.526,431478000000.0
1125.0,403936000000.0
1125.237,386754000000.0
1125.474,370670000000.0
1125.947,340932000000.0
1126.421,313752000000.0
1126.895,289336000000.0
1127.368,262832000000.0
1127.842,238597000000.0
1128.079,227721000000.0
1128.315,217591000000.0
1128.789,199243000000.0
1129.263,181036000000.0
1129.631,167706000000.0
1130.0,156178000000.0
1130.369,146051000000.0
1130.737,137034000000.0
1131.154,127313000000.0
1131.571,117689000000.0
1131.988,109492000000.0
1132.308,104116000000.0
1132.628,99338000000.0
