Wavelength,Flux
900.0,5193240.0
903.442,5740150.0
904.998,6004290.0
906.554,6279540.0
908.11,6566270.0
909.667,6865170.0
910.703,7070890.0
911.74,7282460.0
911.84,7303170.0
912.0,7336400.0
912.31,7401200.0
912.779,7500220.0
913.717,7701900.0
914.335,7837510.0
915.329,8060160.0
915.824,8173200.0
915.892,8188860.0
916.028,8228970.0
916.3,8287170.0
916.429,8313330.0
916.686,8411180.0
916.944,8482020.0
917.181,8490540.0
917.3,8525320.0
917.418,8629750.0
917.448,8648020.0
917.507,8683850.0
917.626,8736290.0
917.863,8787220.0
917.982,8720250.0
918.101,8711960.0
918.129,8718890.0
918.186,8732760.0
918.3,8840650.0
918.413,8996250.0
918.527,9084440.0
918.641,9150500.0
918.869,9241230.0
919.004,9256560.0
919.14,9162830.0
919.275,9002400.0
919.313,9011950.0
919.351,9021500.0
919.401,9034080.0
919.501,9134250.0
919.551,9271680.0
919.601,9386730.0
919.701,9547590.0
919.801,9644320.0
919.901,9715060.0
920.101,9832150.0
920.301,9919860.0
920.501,9960030.0
920.56,9948480.0
920.678,9848080.0
920.737,9721330.0
920.796,9544120.0
920.855,9414520.0
920.914,9422690.0
920.963,9435390.0
921.06,9461270.0
921.157,9749520.0
921.254,10075700.0
921.351,10276800.0
921.448,10409000.0
921.642,10573900.0
921.836,10692500.0
922.117,10841700.0
922.506,10978200.0
922.603,10976000.0
922.7,10936800.0
922.798,10823900.0
922.895,10555800.0
922.945,10349800.0
922.992,10135800.0
923.039,10005800.0
923.086,10007000.0
923.089,10007800.0
923.114,10014700.0
923.138,10021400.0
923.144,10023000.0
923.15,10024700.0
923.156,10026300.0
923.162,10028000.0
923.187,10034900.0
923.211,10041600.0
923.261,10067400.0
923.308,10227200.0
923.358,10495300.0
923.405,10736300.0
923.452,10938500.0
923.499,11101800.0
923.593,11328900.0
923.687,11487700.0
923.781,11599800.0
923.794,11612700.0
923.844,11664300.0
923.944,11755500.0
924.144,11906100.0
924.183,11932700.0
924.261,11983900.0
924.417,12081100.0
924.436,12092500.0
924.486,12122300.0
924.586,12180400.0
924.688,12237000.0
924.892,12344600.0
924.939,12368000.0
925.033,12412900.0
925.189,12479400.0
925.501,12542000.0
925.579,12524700.0
925.734,12384400.0
925.812,12234500.0
925.89,11993500.0
925.97,11629000.0
926.01,11396600.0
926.05,11149000.0
926.067,11051700.0
926.117,10888300.0
926.165,10892300.0
926.189,10899500.0
926.214,10906900.0
926.22,10908700.0
926.226,10910500.0
926.232,10912300.0
926.238,10914100.0
926.263,10921600.0
926.287,10928800.0
926.337,10956600.0
926.385,11150100.0
926.435,11491100.0
926.482,11808100.0
926.576,12327700.0
926.623,12529300.0
926.67,12701100.0
926.764,12977100.0
926.858,13174800.0
926.873,13200900.0
926.923,13281200.0
927.023,13417400.0
927.223,13639700.0
927.263,13681200.0
927.343,13759800.0
927.503,13905500.0
927.824,14166600.0
927.875,14206200.0
927.978,14284500.0
928.184,14438000.0
928.487,14654000.0
929.094,15042200.0
929.097,15044100.0
929.147,15071700.0
929.247,15124200.0
929.447,15212200.0
929.647,15260800.0
929.706,15262300.0
929.824,15233800.0
929.942,15150100.0
930.06,14984900.0
930.098,14915600.0
930.174,14755000.0
930.25,14520800.0
930.325,14205700.0
930.401,13804600.0
930.477,13323800.0
930.491,13218700.0
930.541,12847200.0
930.589,12500000.0
930.637,12318800.0
930.685,12322000.0
930.687,12322700.0
930.711,12330700.0
930.736,12339100.0
930.742,12341100.0
930.748,12343100.0
930.754,12345100.0
930.76,12347100.0
930.785,12355400.0
930.809,12363500.0
930.859,12393200.0
930.907,12608300.0
930.957,13009600.0
931.005,13405500.0
931.101,14117800.0
931.197,14717500.0
931.293,15205300.0
931.389,15585800.0
931.398,15616000.0
931.448,15793500.0
931.548,16109000.0
931.748,16576800.0
931.79,16657700.0
931.874,16802900.0
932.042,17054900.0
932.378,17456500.0
932.714,17794200.0
933.033,18091200.0
933.671,18659400.0
934.276,19191900.0
935.485,20151100.0
935.514,20171200.0
935.572,20210600.0
935.687,20285100.0
935.918,20415100.0
936.38,20505300.0
936.567,20405600.0
936.753,20162700.0
936.939,19693300.0
937.126,18873100.0
937.148,18756400.0
937.198,18486200.0
937.298,17850000.0
937.398,17123500.0
937.498,16355200.0
937.544,15963900.0
937.636,15162700.0
937.642,15110500.0
937.692,14892300.0
937.741,14899100.0
937.766,14909100.0
937.791,14919000.0
937.797,14921400.0
937.803,14923800.0
937.809,14926200.0
937.815,14928600.0
937.84,14938600.0
937.865,14948500.0
937.915,14982900.0
937.964,15241400.0
938.014,15713700.0
938.062,16186100.0
938.158,17067700.0
938.35,18687900.0
938.458,19479200.0
938.566,20219100.0
938.674,20848300.0
938.781,21372400.0
938.853,21675200.0
938.996,22191900.0
939.14,22621500.0
939.283,22973700.0
939.57,23532100.0
939.856,23983300.0
940.429,24758900.0
940.434,24764200.0
940.484,24821300.0
940.584,24934300.0
940.784,25156500.0
940.984,25375900.0
941.184,25590300.0
941.384,25803800.0
941.584,26017600.0
941.784,26231400.0
941.984,26446200.0
942.015,26479400.0
942.077,26546700.0
942.201,26680600.0
942.448,26947100.0
942.894,27410400.0
943.773,28303200.0
944.625,29115800.0
945.478,29928700.0
946.279,30635100.0
947.079,31095600.0
947.479,31179100.0
947.879,31029900.0
948.08,30799400.0
948.28,30382000.0
948.48,29728500.0
948.68,28780400.0
948.88,27451500.0
949.08,25747100.0
949.28,23862300.0
949.48,21790000.0
949.58,20664500.0
949.63,20389800.0
949.68,20401000.0
949.705,20414300.0
949.73,20427500.0
949.737,20431200.0
949.743,20434400.0
949.749,20437600.0
949.755,20440800.0
949.781,20454600.0
949.806,20467900.0
949.856,20510100.0
949.906,20840500.0
949.956,21442200.0
950.006,22088700.0
950.106,23290600.0
950.306,25566300.0
950.406,26641400.0
950.606,28709100.0
950.706,29618300.0
950.806,30441600.0
951.006,31829000.0
951.206,32950700.0
951.406,33848900.0
951.605,34552100.0
951.805,35130700.0
952.205,36094700.0
952.407,36520600.0
952.811,37269900.0
953.62,38529100.0
954.008,39099100.0
954.784,40154900.0
955.609,41234700.0
957.211,43332700.0
958.812,45418800.0
960.413,47597100.0
960.776,48104200.0
961.14,48620800.0
961.376,48959500.0
961.611,49301500.0
962.081,49990300.0
963.021,51384800.0
963.251,51735700.0
963.71,52452600.0
964.629,53889800.0
964.89,54306400.0
965.412,55156500.0
966.456,56886100.0
966.53,57009900.0
966.678,57258200.0
966.975,57759300.0
967.567,58782400.0
968.169,59839600.0
969.372,61931800.0
969.809,62710300.0
970.683,64236100.0
971.448,65402800.0
971.858,65591700.0
972.268,65436800.0
972.318,65410000.0
972.37,65388500.0
972.473,65347000.0
972.499,65332400.0
972.524,65317800.0
972.531,65313500.0
972.537,65309900.0
972.543,65306000.0
972.55,65301400.0
972.575,65285300.0
972.601,65266800.0
972.653,65235800.0
972.703,65264400.0
972.803,65340600.0
972.806,65342700.0
972.856,65380800.0
972.956,65457200.0
973.156,65611400.0
973.216,65658400.0
973.336,65778400.0
973.576,66363000.0
973.626,66486400.0
973.726,66735600.0
973.926,67242900.0
974.326,68413600.0
975.126,70795000.0
975.265,71221500.0
975.544,72007400.0
976.101,73519700.0
976.905,75562700.0
978.512,79533700.0
978.544,79609800.0
978.608,79760900.0
978.735,80058400.0
978.989,80644300.0
979.498,81873000.0
980.184,83713600.0
981.556,87072600.0
981.823,87705400.0
982.357,88997100.0
983.424,91617200.0
983.463,91709600.0
983.54,91895600.0
983.694,92267500.0
984.003,93020700.0
984.62,94560000.0
985.102,95793800.0
986.065,98331900.0
986.742,100070000.0
988.095,103705000.0
988.381,104502000.0
988.953,106134000.0
990.021,109093000.0
991.66,113870000.0
993.3,118872000.0
996.58,129523000.0
996.65,129754000.0
996.79,130223000.0
997.07,131164000.0
997.63,133090000.0
998.75,137143000.0
1000.0,141629000.0
1001.912,148747000.0
1003.824,156229000.0
1005.553,162988000.0
1007.282,170038000.0
1009.011,177209000.0
1010.74,184782000.0
1012.469,191848000.0
1014.199,198755000.0
1015.928,204802000.0
1017.657,209399000.0
1018.521,210662000.0
1019.386,210820000.0
1020.25,209697000.0
1021.115,207418000.0
1021.979,203851000.0
1022.844,198327000.0
1023.276,194679000.0
1023.708,190162000.0
1024.141,183746000.0
1024.573,174129000.0
1024.624,172672000.0
1024.674,171171000.0
1024.724,169596000.0
1024.774,168015000.0
1024.824,166328000.0
1024.874,164522000.0
1024.924,162668000.0
1024.974,160667000.0
1025.006,159322000.0
1025.069,156612000.0
1025.196,150826000.0
1025.317,144296000.0
1025.438,136991000.0
1025.546,129546000.0
1025.6,126072000.0
1025.654,124895000.0
1025.681,124952000.0
1025.708,125025000.0
1025.715,125045000.0
1025.72,125058000.0
1025.722,125064000.0
1025.729,125083000.0
1025.736,125102000.0
1025.763,125176000.0
1025.79,125250000.0
1025.844,126065000.0
1025.871,127445000.0
1025.898,129341000.0
1025.952,133576000.0
1026.006,137677000.0
1026.115,145049000.0
1026.223,151980000.0
1026.331,158172000.0
1026.438,163764000.0
1026.545,168967000.0
1026.653,173729000.0
1026.76,178047000.0
1026.868,182105000.0
1026.87,182189000.0
1026.92,183982000.0
1026.97,185744000.0
1027.02,187439000.0
1027.07,188977000.0
1027.12,190478000.0
1027.17,191938000.0
1027.22,193372000.0
1027.27,194790000.0
1027.32,196191000.0
1027.37,197614000.0
1027.421,199021000.0
1027.471,200428000.0
1027.521,201713000.0
1027.571,202802000.0
1027.621,203872000.0
1027.671,204928000.0
1027.721,205988000.0
1027.771,207031000.0
1027.821,208070000.0
1027.871,209104000.0
1027.921,210150000.0
1027.971,211229000.0
1028.021,212259000.0
1028.071,213188000.0
1028.121,214116000.0
1028.171,215051000.0
1028.221,215989000.0
1028.271,216925000.0
1028.321,217868000.0
1028.371,218826000.0
1028.422,219791000.0
1028.472,220760000.0
1028.522,221689000.0
1028.572,222538000.0
1028.6,223027000.0
1028.657,224009000.0
1028.77,225980000.0
1028.996,230011000.0
1029.45,237041000.0
1030.329,250034000.0
1032.058,276328000.0
1033.787,299640000.0
1034.651,309109000.0
1035.516,318551000.0
1036.38,329751000.0
1037.245,342730000.0
1037.296,343550000.0
1037.346,344344000.0
1037.396,345155000.0
1037.446,345961000.0
1037.496,346758000.0
1037.546,347460000.0
1037.596,348153000.0
1037.646,348848000.0
1037.696,349552000.0
1037.746,350240000.0
1037.797,350939000.0
1037.847,351650000.0
1037.897,352352000.0
1037.947,353074000.0
1037.997,353790000.0
1038.047,354468000.0
1038.097,355142000.0
1038.147,355837000.0
1038.197,356525000.0
1038.247,357219000.0
1038.297,357939000.0
1038.347,358648000.0
1038.397,359355000.0
1038.447,360082000.0
1038.497,360798000.0
1038.547,361479000.0
1038.597,362143000.0
1038.647,362817000.0
1038.697,363487000.0
1038.747,364157000.0
1038.797,364820000.0
1038.848,365522000.0
1038.898,366214000.0
1038.948,366902000.0
1038.975,367288000.0
1039.03,368011000.0
1039.139,369447000.0
1039.358,372245000.0
1039.795,377108000.0
1040.67,386744000.0
1040.704,387121000.0
1040.771,387896000.0
1040.906,389443000.0
1041.176,392567000.0
1041.715,398913000.0
1042.433,407301000.0
1043.87,424411000.0
1044.162,428098000.0
1044.747,435851000.0
1045.892,449591000.0
1047.621,471006000.0
1048.81,486820000.0
1050.0,503880000.0
1052.38,536420000.0
1055.0,573575000.0
1057.62,613959000.0
1060.0,651563000.0
1062.38,700243000.0
1064.76,751311000.0
1065.0,756147000.0
1065.48,765865000.0
1066.441,786106000.0
1068.363,830239000.0
1070.0,870315000.0
1073.273,941870000.0
1075.0,984237000.0
1076.727,1033050000.0
1078.453,1083610000.0
1080.0,1134140000.0
1081.538,1189920000.0
1083.077,1253280000.0
1084.616,1317160000.0
1086.538,1384920000.0
1088.46,1459140000.0
1090.0,1526720000.0
1091.54,1603500000.0
1093.08,1665660000.0
1094.62,1730280000.0
1095.0,1747230000.0
1095.759,1782050000.0
1097.277,1858830000.0
1100.0,2009450000.0
1101.361,2069280000.0
1102.723,2134220000.0
1105.0,2250800000.0
1109.554,2485600000.0
1110.0,2501390000.0
1110.892,2533790000.0
1112.675,2591300000.0
1115.0,2678930000.0
1117.325,2686280000.0
1119.65,2641130000.0
1120.0,2630430000.0
1120.699,2612600000.0
1121.398,2585400000.0
1122.098,2550180000.0
1123.496,2479100000.0
1125.0,2387940000.0
1126.504,2298300000.0
1128.008,2236690000.0
1129.512,2195100000.0
1130.0,2184120000.0
1130.977,2172630000.0
1131.154,2170060000.0
1131.509,2165640000.0
1132.219,2160560000.0
1132.308,2160250000.0
1132.486,2159830000.0
1132.842,2159700000.0
1133.554,2157440000.0
1134.978,2162500000.0
1136.154,2167840000.0
1138.507,2190950000.0
1140.0,2209570000.0
1142.986,2261900000.0
1145.0,2302050000.0
1149.027,2393070000.0
1150.0,2415780000.0
1151.945,2464130000.0
1155.836,2563450000.0
1159.727,2661690000.0
1163.617,2757630000.0
1165.769,2809710000.0
1170.073,2915400000.0
1174.376,3033730000.0
1178.68,3168460000.0
1181.538,3269920000.0
1184.396,3383620000.0
1185.628,3436280000.0
1188.093,3546380000.0
1189.718,3620440000.0
1191.767,3710390000.0
1193.816,3793180000.0
1195.866,3868590000.0
1197.915,3937330000.0
1199.964,4003130000.0
1202.014,4066010000.0
1204.063,4118300000.0
1206.113,4143010000.0
1208.162,4130630000.0
1210.211,4101940000.0
1210.261,4101430000.0
1210.311,4101050000.0
1210.361,4100640000.0
1210.411,4100280000.0
1210.461,4099980000.0
1210.511,4099350000.0
1210.561,4097530000.0
1210.611,4095830000.0
1210.661,4094250000.0
1210.712,4092820000.0
1210.762,4091550000.0
1210.812,4090390000.0
1210.862,4089290000.0
1210.912,4088280000.0
1210.962,4087390000.0
1211.012,4086090000.0
1211.062,4083570000.0
1211.112,4081210000.0
1211.162,4078990000.0
1211.212,4076910000.0
1211.262,4074960000.0
1211.312,4073130000.0
1211.362,4071500000.0
1211.412,4070020000.0
1211.462,4068640000.0
1211.512,4067330000.0
1211.562,4065980000.0
1211.612,4064720000.0
1211.662,4063980000.0
1211.713,4063340000.0
1211.763,4062690000.0
1211.813,4062130000.0
1211.863,4061670000.0
1211.913,4061270000.0
1211.963,4060960000.0
1212.013,4060220000.0
1212.063,4058200000.0
1212.113,4056320000.0
1212.163,4054570000.0
1212.213,4052870000.0
1212.261,4051260000.0
1212.357,4048330000.0
1212.549,4042930000.0
1212.933,4034320000.0
1213.7,4025400000.0
1214.31,4026400000.0
1214.822,4036080000.0
1215.335,4015740000.0
1215.399,3991710000.0
1215.463,3955440000.0
1215.513,3920480000.0
1215.563,3898460000.0
1215.591,3897330000.0
1215.623,3899090000.0
1215.655,3900960000.0
1215.663,3901420000.0
1215.67,3901840000.0
1215.679,3902360000.0
1215.687,3902820000.0
1215.719,3904690000.0
1215.751,3906690000.0
1215.815,3931280000.0
1215.879,3987920000.0
1215.929,4029820000.0
1215.979,4065510000.0
1216.007,4081140000.0
1216.063,4108120000.0
1216.174,4152260000.0
1216.397,4222430000.0
1216.52,4257130000.0
1216.767,4315970000.0
1217.032,4386580000.0
1217.562,4528130000.0
1218.623,4821360000.0
1219.081,4947030000.0
1219.998,5237350000.0
1220.456,5341600000.0
1220.914,5455740000.0
1221.131,5513250000.0
1221.565,5628400000.0
1221.999,5687660000.0
1222.432,5750230000.0
1223.18,5915020000.0
1223.928,6070550000.0
1225.229,6283820000.0
1226.53,6441030000.0
1227.279,6519910000.0
1228.776,6686300000.0
1229.328,6749520000.0
1230.431,6883710000.0
1231.378,6996110000.0
1233.272,7224580000.0
1233.427,7243620000.0
1233.738,7281580000.0
1234.359,7356720000.0
1235.476,7488850000.0
1237.526,7733100000.0
1239.575,7973960000.0
1241.625,8218550000.0
1245.725,8732510000.0
1249.825,9277870000.0
1250.812,9408020000.0
1252.786,9686820000.0
1256.733,10257500000.0
1260.0,10769700000.0
1263.267,11329100000.0
1265.0,11628200000.0
1268.466,12220300000.0
1270.0,12501300000.0
1273.068,13074600000.0
1275.0,13435700000.0
1278.863,14228600000.0
1280.0,14463100000.0
1282.273,14930700000.0
1285.0,15476500000.0
1287.727,16049100000.0
1290.0,16543300000.0
1294.547,17597900000.0
1295.0,17708200000.0
1295.906,17931200000.0
1297.719,18379300000.0
1300.0,18946100000.0
1305.0,20194300000.0
1310.0,21511800000.0
1315.0,22907700000.0
1320.0,24381900000.0
1325.0,25943800000.0
1330.0,27600200000.0
1335.0,29345400000.0
1340.0,31168700000.0
1345.0,33075000000.0
1350.0,35082200000.0
1355.0,37205800000.0
1360.0,39421400000.0
1365.0,41750500000.0
1370.0,44207900000.0
1374.231,46367600000.0
1378.462,48610000000.0
1379.231,49027900000.0
1380.0,49449000000.0
1381.538,50300900000.0
1384.614,52042700000.0
1385.0,52264600000.0
1385.771,52710700000.0
1387.314,53612300000.0
1390.0,55211800000.0
1395.0,58297800000.0
1400.0,61528900000.0
1405.0,64914600000.0
1410.0,68467500000.0
1415.0,72182300000.0
1420.0,76052800000.0
1425.0,80095400000.0
1430.0,84317000000.0
1435.0,88701300000.0
1440.0,93240800000.0
1445.0,97955100000.0
1450.0,102860000000.0
1455.0,107960000000.0
1460.0,113271000000.0
1465.0,118797000000.0
1470.0,124595000000.0
1473.462,128771000000.0
1476.923,133081000000.0
1478.462,135043000000.0
1480.0,137034000000.0
1483.076,141107000000.0
1485.0,143718000000.0
1488.848,149075000000.0
1490.0,150710000000.0
1492.304,154017000000.0
1495.0,157938000000.0
1500.0,165343000000.0
1505.0,172963000000.0
1510.0,180920000000.0
1515.0,189316000000.0
1520.0,198092000000.0
1525.0,207009000000.0
1530.0,215825000000.0
1535.0,224521000000.0
1540.0,233379000000.0
1545.0,242672000000.0
1550.0,252562000000.0
1555.0,263054000000.0
1560.0,274001000000.0
1565.0,285174000000.0
1570.0,296400000000.0
1572.692,302462000000.0
1575.385,308559000000.0
1577.692,313839000000.0
1580.0,319195000000.0
1584.616,330203000000.0
1585.0,331145000000.0
1585.768,333036000000.0
1587.304,336872000000.0
1590.0,343780000000.0
1595.0,357253000000.0
1600.0,371667000000.0
1605.0,387124000000.0
1610.0,403624000000.0
1615.0,421251000000.0
1620.0,440054000000.0
1625.0,460137000000.0
1630.0,481534000000.0
1635.0,504432000000.0
1640.0,528823000000.0
1645.0,554815000000.0
1650.0,582685000000.0
1655.0,612833000000.0
1660.0,645847000000.0
1665.0,681787000000.0
1670.0,721317000000.0
1671.923,737438000000.0
1673.846,754439000000.0
1676.923,784003000000.0
1680.0,817095000000.0
1682.5,846401000000.0
1685.0,880175000000.0
1687.5,917220000000.0
1690.0,962554000000.0
1692.5,1013640000000.0
1695.0,1077600000000.0
1696.25,1112880000000.0
1697.5,1150570000000.0
1698.75,1194860000000.0
1700.0,1246820000000.0
1702.5,1359380000000.0
1703.75,1428430000000.0
1705.0,1509290000000.0
1707.5,1685770000000.0
1708.75,1792460000000.0
1710.0,1919620000000.0
1711.25,2055330000000.0
1712.5,2200920000000.0
1713.75,2370460000000.0
1715.0,2570280000000.0
1716.25,2781360000000.0
1717.5,3005780000000.0
1718.75,3266220000000.0
1720.0,3570850000000.0
1722.5,4216040000000.0
1723.75,4599870000000.0
1725.0,5044730000000.0
1727.5,5969960000000.0
1728.75,6504420000000.0
1730.0,7116030000000.0
1732.5,8360680000000.0
1733.75,9064650000000.0
1735.0,9853910000000.0
1737.5,11427500000000.0
1738.75,12302400000000.0
1740.0,13272200000000.0
1742.5,15169100000000.0
1743.75,16200700000000.0
1745.0,17326200000000.0
1747.5,19488000000000.0
1748.75,20645700000000.0
1750.0,21891900000000.0
1752.5,24266400000000.0
1757.5,29296100000000.0
1761.154,33030400000000.0
1768.462,40128400000000.0
1772.308,43712100000000.0
1776.154,47154600000000.0
1780.0,50358600000000.0
1783.845,53319500000000.0
1787.691,56127300000000.0
1795.383,61235800000000.0
1799.229,63467800000000.0
1803.075,65577100000000.0
1810.766,69445000000000.0
1818.458,72824000000000.0
1821.539,74095500000000.0
1827.701,76473400000000.0
1840.025,80822400000000.0
1852.349,84775200000000.0
1864.674,88507700000000.0
1870.769,90302300000000.0
1882.96,93800100000000.0
1895.15,97254500000000.0
1907.341,100687000000000.0
1919.532,104122000000000.0
1920.0,104254000000000.0
1920.937,104516000000000.0
1922.81,105041000000000.0
1926.556,106093000000000.0
1934.048,108200000000000.0
1949.032,112435000000000.0
1964.017,116702000000000.0
1969.231,118195000000000.0
1979.66,121174000000000.0
1990.088,124169000000000.0
2000.517,127179000000000.0
2010.946,130200000000000.0
2018.462,132393000000000.0
2033.495,136772000000000.0
2048.527,141191000000000.0
2063.559,145650000000000.0
2067.692,146881000000000.0
2075.957,149338000000000.0
2092.487,154282000000000.0
2109.018,159261000000000.0
2116.923,161652000000000.0
2132.734,166415000000000.0
2148.545,171189000000000.0
2164.356,175967000000000.0
2166.154,176508000000000.0
2169.75,177586000000000.0
2176.941,179746000000000.0
2191.324,184053000000000.0
2205.707,188362000000000.0
2215.385,191261000000000.0
2234.741,197040000000000.0
2254.098,202842000000000.0
2264.615,206005000000000.0
2275.132,209159000000000.0
2285.649,212322000000000.0
2296.166,215495000000000.0
2306.683,218680000000000.0
2313.846,220855000000000.0
2328.171,225198000000000.0
