Wavelength,Flux
900.0,812946000.0
903.442,881425000.0
904.998,914040000.0
906.554,947730000.0
908.11,982524000.0
909.667,1018480000.0
910.703,1043050000.0
911.74,1068180000.0
911.84,1070630000.0
912.0,1074560000.0
912.31,1082210000.0
912.779,1093890000.0
913.717,1117570000.0
913.871,1121520000.0
914.026,1125470000.0
914.181,1182680000.0
914.335,1217050000.0
914.49,1259620000.0
914.644,1305290000.0
914.798,1350160000.0
914.953,1369270000.0
914.992,1362960000.0
915.03,1347950000.0
915.069,1321530000.0
915.107,1282880000.0
915.146,1230770000.0
915.185,1181600000.0
915.223,1157410000.0
915.262,1157580000.0
915.312,1158900000.0
915.329,1159350000.0
915.379,1160670000.0
915.429,1162300000.0
915.479,1195950000.0
915.529,1257320000.0
915.579,1287010000.0
915.629,1258100000.0
915.679,1197540000.0
915.729,1170070000.0
915.779,1171250000.0
915.824,1172450000.0
915.892,1174270000.0
915.926,1175720000.0
915.96,1197510000.0
915.994,1253020000.0
916.028,1320870000.0
916.078,1405620000.0
916.128,1441900000.0
916.178,1413290000.0
916.228,1329440000.0
916.278,1230480000.0
916.328,1186360000.0
916.378,1187280000.0
916.428,1188630000.0
916.479,1190000000.0
916.529,1191700000.0
916.579,1241340000.0
916.629,1369110000.0
916.679,1517800000.0
916.729,1641400000.0
916.779,1718400000.0
916.829,1730290000.0
916.879,1671010000.0
916.929,1552290000.0
916.979,1398980000.0
917.029,1261670000.0
917.079,1206820000.0
917.129,1207640000.0
917.179,1209000000.0
917.181,1209060000.0
917.231,1210430000.0
917.281,1212130000.0
917.331,1268100000.0
917.381,1422800000.0
917.431,1623570000.0
917.448,1696980000.0
917.498,1906720000.0
917.548,2088590000.0
917.598,2219720000.0
917.648,2284410000.0
917.698,2272160000.0
917.748,2180400000.0
917.798,2020500000.0
917.848,1807830000.0
917.898,1584550000.0
917.948,1381430000.0
917.998,1251930000.0
918.048,1232980000.0
918.098,1234370000.0
918.129,1235240000.0
918.191,1236980000.0
918.223,1237930000.0
918.254,1250800000.0
918.285,1315070000.0
918.316,1421680000.0
918.347,1562170000.0
918.379,1721260000.0
918.41,1900670000.0
918.441,2091150000.0
918.503,2479120000.0
918.534,2665690000.0
918.566,2836370000.0
918.597,2990730000.0
918.628,3123590000.0
918.659,3231320000.0
918.69,3310650000.0
918.722,3360170000.0
918.753,3378310000.0
918.784,3363790000.0
918.815,3316140000.0
918.846,3235290000.0
918.878,3121530000.0
918.909,2978350000.0
918.94,2810820000.0
918.971,2620260000.0
919.002,2417500000.0
919.004,2405920000.0
919.054,2070550000.0
919.104,1756760000.0
919.154,1496580000.0
919.204,1320060000.0
919.254,1267100000.0
919.302,1268340000.0
919.351,1269720000.0
919.448,1272640000.0
919.497,1325800000.0
919.545,1500730000.0
919.594,1766710000.0
919.642,2105920000.0
919.691,2501510000.0
919.739,2929360000.0
919.836,3799630000.0
919.885,4198020000.0
919.933,4554140000.0
919.982,4857110000.0
920.03,5102170000.0
920.079,5285060000.0
920.127,5401690000.0
920.176,5445420000.0
920.224,5412600000.0
920.273,5301630000.0
920.321,5114270000.0
920.37,4851170000.0
920.419,4516390000.0
920.467,4115260000.0
920.516,3666650000.0
920.56,3231880000.0
920.61,2743100000.0
920.66,2284920000.0
920.71,1895790000.0
920.76,1591710000.0
920.81,1385710000.0
920.86,1313870000.0
920.91,1314960000.0
920.963,1316530000.0
921.069,1320430000.0
921.096,1344510000.0
921.122,1414620000.0
921.149,1521250000.0
921.175,1661070000.0
921.202,1825260000.0
921.229,2020610000.0
921.255,2241680000.0
921.282,2488950000.0
921.308,2759920000.0
921.335,3048680000.0
921.361,3354770000.0
921.388,3670080000.0
921.441,4320480000.0
921.547,5603910000.0
921.6,6208410000.0
921.653,6764600000.0
921.706,7283460000.0
921.76,7751670000.0
921.813,8148110000.0
921.866,8485880000.0
921.919,8762950000.0
921.972,8965870000.0
922.025,9096000000.0
922.078,9150690000.0
922.117,9141110000.0
922.167,9064750000.0
922.217,8913500000.0
922.267,8685780000.0
922.317,8387320000.0
922.367,8019800000.0
922.417,7578500000.0
922.467,7068580000.0
922.506,6637120000.0
922.545,6178250000.0
922.584,5686600000.0
922.662,4667830000.0
922.74,3639900000.0
922.779,3161790000.0
922.818,2723420000.0
922.856,2334520000.0
922.895,2007340000.0
922.934,1746340000.0
922.972,1543830000.0
922.992,1467560000.0
923.042,1379980000.0
923.089,1380600000.0
923.114,1381370000.0
923.138,1382110000.0
923.144,1382290000.0
923.15,1382480000.0
923.156,1382670000.0
923.162,1382850000.0
923.187,1383620000.0
923.211,1384360000.0
923.261,1387480000.0
923.308,1477770000.0
923.358,1712040000.0
923.405,2031750000.0
923.455,2480890000.0
923.505,3038700000.0
923.555,3680020000.0
923.605,4385130000.0
923.655,5128490000.0
923.705,5887340000.0
923.794,7251390000.0
923.883,8595320000.0
923.972,9865020000.0
924.061,11056800000.0
924.15,12126700000.0
924.183,12494300000.0
924.249,13164900000.0
924.314,13759400000.0
924.38,14278900000.0
924.436,14662000000.0
924.492,14984500000.0
924.549,15243600000.0
924.605,15434200000.0
924.661,15559200000.0
924.688,15595000000.0
924.741,15620400000.0
924.795,15582700000.0
924.848,15480700000.0
924.894,15341800000.0
924.939,15150400000.0
924.984,14908800000.0
925.03,14617600000.0
925.075,14276900000.0
925.121,13887800000.0
925.189,13215400000.0
925.257,12437300000.0
925.325,11567300000.0
925.393,10602400000.0
925.461,9572410000.0
925.53,8496770000.0
925.579,7688760000.0
925.678,6069140000.0
925.727,5277570000.0
925.776,4506540000.0
925.826,3781490000.0
925.875,3127950000.0
925.923,2584820000.0
925.97,2146010000.0
926.017,1812570000.0
926.065,1579830000.0
926.067,1571110000.0
926.117,1477390000.0
926.165,1478230000.0
926.189,1479020000.0
926.214,1479830000.0
926.22,1480030000.0
926.226,1480230000.0
926.232,1480420000.0
926.238,1480620000.0
926.263,1481440000.0
926.287,1482220000.0
926.337,1484890000.0
926.385,1582190000.0
926.435,1831270000.0
926.482,2170050000.0
926.532,2648190000.0
926.582,3245700000.0
926.632,3939120000.0
926.682,4710480000.0
926.732,5534350000.0
926.782,6391180000.0
926.832,7275030000.0
926.873,8014270000.0
926.955,9515800000.0
927.119,12498300000.0
927.263,14992200000.0
927.335,16178000000.0
927.407,17300900000.0
927.55,19364700000.0
927.622,20289700000.0
927.694,21146100000.0
927.837,22668200000.0
927.875,23024800000.0
927.951,23680800000.0
928.102,24763000000.0
928.177,25194800000.0
928.253,25553500000.0
928.404,26045600000.0
928.487,26182500000.0
928.57,26221400000.0
928.653,26160000000.0
928.736,25995500000.0
928.819,25727000000.0
928.902,25352500000.0
928.985,24866800000.0
929.068,24259500000.0
929.097,24023600000.0
929.154,23512200000.0
929.268,22327300000.0
929.382,20943100000.0
929.439,20178200000.0
929.496,19351900000.0
929.61,17557600000.0
929.706,15906500000.0
929.802,14166800000.0
929.898,12362700000.0
929.994,10512800000.0
930.098,8513230000.0
930.15,7535000000.0
930.202,6567300000.0
930.254,5639330000.0
930.306,4753450000.0
930.333,4330520000.0
930.359,3932310000.0
930.409,3237940000.0
930.459,2659180000.0
930.491,2347020000.0
930.541,1973030000.0
930.589,1728430000.0
930.639,1631570000.0
930.687,1632920000.0
930.711,1633780000.0
930.736,1634680000.0
930.742,1634890000.0
930.748,1635100000.0
930.754,1635320000.0
930.76,1635540000.0
930.785,1636430000.0
930.809,1637290000.0
930.859,1639770000.0
930.907,1740470000.0
930.957,2004300000.0
931.005,2373740000.0
931.055,2885610000.0
931.105,3526860000.0
931.155,4273640000.0
931.205,5108370000.0
931.255,6004370000.0
931.305,6939960000.0
931.355,7912770000.0
931.398,8769050000.0
931.484,10528600000.0
931.657,14104600000.0
931.79,16851100000.0
931.923,19503000000.0
932.057,22002900000.0
932.19,24338200000.0
932.324,26522700000.0
932.457,28529800000.0
932.591,30398400000.0
932.724,32109400000.0
932.857,33661300000.0
933.033,35485000000.0
933.209,37069900000.0
933.384,38425800000.0
933.56,39567000000.0
933.736,40495200000.0
933.911,41212400000.0
934.087,41723600000.0
934.276,42039200000.0
934.465,42106100000.0
934.654,41918300000.0
934.843,41463200000.0
935.032,40727200000.0
935.221,39697000000.0
935.41,38395300000.0
935.514,37517800000.0
935.722,35455200000.0
935.825,34292000000.0
935.929,32977000000.0
936.033,31551400000.0
936.137,30009500000.0
936.241,28371400000.0
936.345,26599500000.0
936.448,24725600000.0
936.552,22737400000.0
936.653,20687100000.0
936.753,18541900000.0
936.853,16331800000.0
936.954,14088300000.0
937.148,9754290000.0
937.245,7678360000.0
937.342,5737370000.0
937.391,4847670000.0
937.439,4045980000.0
937.488,3351150000.0
937.536,2787610000.0
937.544,2710710000.0
937.594,2290170000.0
937.642,2012900000.0
937.692,1901370000.0
937.741,1903080000.0
937.766,1904110000.0
937.791,1905130000.0
937.797,1905380000.0
937.803,1905620000.0
937.809,1905870000.0
937.815,1906110000.0
937.84,1907140000.0
937.865,1908170000.0
937.915,1910570000.0
937.964,2027110000.0
938.014,2325740000.0
938.062,2741120000.0
938.112,3315180000.0
938.162,4034250000.0
938.212,4872490000.0
938.262,5811730000.0
938.312,6822530000.0
938.362,7878130000.0
938.412,8982670000.0
938.458,10018400000.0
938.55,12162000000.0
938.642,14349400000.0
938.827,18750000000.0
938.853,19374500000.0
938.906,20621000000.0
939.011,23038100000.0
939.117,25359100000.0
939.222,27588000000.0
939.433,31786300000.0
939.539,33748800000.0
939.644,35618600000.0
939.855,39080500000.0
940.066,42201600000.0
940.277,45020200000.0
940.434,46938900000.0
940.748,50348000000.0
941.063,53358900000.0
941.377,55867000000.0
941.691,58012000000.0
942.006,59858400000.0
942.015,59909000000.0
942.065,60176100000.0
942.165,60690800000.0
942.365,61641500000.0
942.565,62492100000.0
942.765,63251400000.0
942.894,63691200000.0
943.152,64652100000.0
943.41,65258000000.0
943.668,65704400000.0
943.773,65840200000.0
943.983,66029900000.0
944.404,66072500000.0
944.625,65910700000.0
945.066,65188700000.0
945.478,64006800000.0
945.89,62260300000.0
946.096,61148100000.0
946.302,59854000000.0
946.507,58335700000.0
946.713,56591500000.0
946.896,54826800000.0
947.079,52837500000.0
947.262,50597700000.0
947.445,48097100000.0
947.628,45311300000.0
947.81,42215100000.0
947.993,38767400000.0
948.176,34999900000.0
948.359,30860100000.0
948.542,26375800000.0
948.611,24591700000.0
948.68,22752900000.0
948.818,19020300000.0
949.08,11936600000.0
949.18,9374190000.0
949.28,6982640000.0
949.33,5896540000.0
949.38,4926630000.0
949.43,4098190000.0
949.48,3428310000.0
949.53,2924890000.0
949.58,2580840000.0
949.63,2449340000.0
949.68,2451710000.0
949.705,2453000000.0
949.73,2454270000.0
949.737,2454640000.0
949.743,2454950000.0
949.749,2455260000.0
949.755,2455560000.0
949.781,2456900000.0
949.806,2458180000.0
949.856,2460960000.0
949.906,2598450000.0
949.956,2950790000.0
950.006,3465470000.0
950.056,4149620000.0
950.106,4997700000.0
950.156,5992620000.0
950.206,7110800000.0
950.256,8317040000.0
950.306,9578970000.0
950.356,10899500000.0
950.406,12241300000.0
950.456,13638400000.0
950.556,16457700000.0
950.756,22236000000.0
950.806,23674800000.0
950.906,26523700000.0
951.106,31949800000.0
951.307,37015400000.0
951.507,41694400000.0
951.707,46029600000.0
951.907,49990300000.0
952.107,53625200000.0
952.307,56966900000.0
952.407,58523500000.0
952.606,61437100000.0
952.805,64114400000.0
953.004,66588900000.0
953.402,70978200000.0
953.8,74824600000.0
954.008,76668300000.0
954.424,80111200000.0
955.257,86225000000.0
955.609,88612000000.0
956.313,93374700000.0
957.211,98971000000.0
958.812,108722000000.0
960.413,118752000000.0
960.594,119918000000.0
960.776,122488000000.0
960.867,123106000000.0
960.958,123724000000.0
961.048,124342000000.0
961.139,124964000000.0
961.19,125313000000.0
961.29,126001000000.0
961.376,126595000000.0
961.548,127787000000.0
961.611,128223000000.0
961.737,129097000000.0
961.989,130857000000.0
962.494,134376000000.0
963.251,139614000000.0
964.766,149378000000.0
964.89,150059000000.0
965.139,151378000000.0
965.637,153780000000.0
966.53,156522000000.0
966.977,156933000000.0
967.423,156781000000.0
967.796,155410000000.0
968.169,153808000000.0
968.542,151726000000.0
968.915,148918000000.0
969.661,143162000000.0
969.809,142164000000.0
970.105,140161000000.0
970.697,136128000000.0
970.885,134584000000.0
971.073,133266000000.0
971.167,132677000000.0
971.26,132128000000.0
971.307,131867000000.0
971.354,130780000000.0
971.401,128139000000.0
971.448,125948000000.0
971.542,122421000000.0
971.635,119646000000.0
971.729,117354000000.0
971.858,114737000000.0
972.115,108912000000.0
972.268,105265000000.0
972.37,103201000000.0
972.473,101342000000.0
972.499,100901000000.0
972.524,100487000000.0
972.531,100373000000.0
972.537,100276000000.0
972.543,100178000000.0
972.55,100066000000.0
972.575,99669400000.0
972.601,99266000000.0
972.653,98482100000.0
972.703,98152700000.0
972.803,97640100000.0
972.806,97624700000.0
972.856,97376300000.0
972.956,96892800000.0
973.156,95973600000.0
973.216,95709200000.0
973.336,95361100000.0
973.456,96133300000.0
973.576,96920100000.0
973.626,97253400000.0
973.726,97929700000.0
973.926,99324900000.0
974.126,101112000000.0
974.326,103171000000.0
974.726,107606000000.0
975.265,113703000000.0
975.804,119264000000.0
976.344,124206000000.0
976.905,129018000000.0
977.466,134319000000.0
978.028,141037000000.0
978.544,146789000000.0
979.06,152844000000.0
979.576,160496000000.0
979.88,166644000000.0
980.184,173457000000.0
980.488,181429000000.0
980.792,189888000000.0
981.096,196440000000.0
981.399,203679000000.0
981.611,206722000000.0
981.823,209969000000.0
982.247,216254000000.0
983.094,227395000000.0
983.463,231811000000.0
984.202,241339000000.0
985.102,254549000000.0
986.002,265297000000.0
986.742,274337000000.0
988.221,291121000000.0
988.381,290903000000.0
988.541,290693000000.0
988.861,290716000000.0
989.18,293503000000.0
989.5,296270000000.0
989.76,296840000000.0
990.021,297399000000.0
990.281,296969000000.0
990.542,294821000000.0
991.063,291768000000.0
991.361,291139000000.0
991.66,291429000000.0
991.71,291822000000.0
991.81,292609000000.0
992.01,294187000000.0
992.21,295746000000.0
992.41,298532000000.0
992.61,301618000000.0
992.81,304719000000.0
993.01,308401000000.0
993.21,313166000000.0
993.3,315387000000.0
993.48,319985000000.0
993.84,329938000000.0
994.56,348897000000.0
995.279,356311000000.0
995.999,357361000000.0
996.324,358745000000.0
996.65,364514000000.0
996.976,372102000000.0
997.301,382558000000.0
997.627,395973000000.0
997.952,410635000000.0
998.278,426740000000.0
998.603,442471000000.0
998.929,454181000000.0
999.255,464068000000.0
999.417,465812000000.0
999.58,467883000000.0
999.743,470304000000.0
999.784,520045000000.0
999.824,520677000000.0
999.865,521307000000.0
999.906,521589000000.0
999.956,521260000000.0
1000.0,520962000000.0
1000.089,520605000000.0
1000.266,519822000000.0
1000.62,516543000000.0
1000.975,508106000000.0
1001.329,498684000000.0
1001.912,483520000000.0
1003.077,454767000000.0
1003.824,436230000000.0
1005.317,402359000000.0
1005.553,397493000000.0
1006.024,388301000000.0
1006.967,370563000000.0
1007.282,365419000000.0
1007.913,355078000000.0
1009.011,338870000000.0
1010.109,324563000000.0
1010.74,317028000000.0
1012.002,303450000000.0
1012.469,298837000000.0
1013.404,290148000000.0
1014.199,283271000000.0
1015.79,270947000000.0
1015.928,269971000000.0
1016.204,267943000000.0
1016.757,263974000000.0
1017.657,257496000000.0
1019.386,243375000000.0
1020.25,234286000000.0
1021.115,222615000000.0
1021.547,215332000000.0
1021.979,206560000000.0
1022.412,195518000000.0
1022.844,181791000000.0
1023.06,173916000000.0
1023.276,164760000000.0
1023.492,155512000000.0
1023.708,143604000000.0
1023.925,131799000000.0
1024.141,117358000000.0
1024.357,102564000000.0
1024.573,86910700000.0
1024.624,82863600000.0
1024.674,78960500000.0
1024.724,75076700000.0
1024.774,71206100000.0
1024.824,67336800000.0
1024.874,63417900000.0
1024.924,59434500000.0
1024.974,55456000000.0
1025.006,52935600000.0
1025.069,47953400000.0
1025.132,42745300000.0
1025.196,37393600000.0
1025.322,26631800000.0
1025.351,24258300000.0
1025.38,21984600000.0
1025.409,19860900000.0
1025.438,17887000000.0
1025.488,14957100000.0
1025.538,12704800000.0
1025.546,12404200000.0
1025.596,11008900000.0
1025.646,10538300000.0
1025.654,10529500000.0
1025.681,10530500000.0
1025.708,10535500000.0
1025.715,10536800000.0
1025.72,10537700000.0
1025.722,10538100000.0
1025.729,10539400000.0
1025.736,10540700000.0
1025.763,10545700000.0
1025.79,10550700000.0
1025.817,10576100000.0
1025.844,10754600000.0
1025.871,11208100000.0
1025.898,11939800000.0
1025.925,12908600000.0
1025.952,14065700000.0
1025.979,15444200000.0
1026.005,17011400000.0
1026.056,20460700000.0
1026.106,24361300000.0
1026.156,28605700000.0
1026.206,33010100000.0
1026.256,37433100000.0
1026.306,41899700000.0
1026.356,46223000000.0
1026.406,50526300000.0
1026.438,53162500000.0
1026.501,58243400000.0
1026.628,68686700000.0
1026.87,88106000000.0
1027.112,106747000000.0
1027.233,115257000000.0
1027.355,124040000000.0
1027.476,133189000000.0
1027.597,140795000000.0
1027.718,147931000000.0
1027.839,155093000000.0
1028.081,168873000000.0
1028.323,180928000000.0
1028.566,192634000000.0
1028.6,194026000000.0
1028.668,196801000000.0
1028.805,202320000000.0
1029.078,212833000000.0
1029.352,221800000000.0
1029.625,230164000000.0
1030.172,244853000000.0
1030.329,248655000000.0
1030.642,256243000000.0
1031.269,271457000000.0
1032.058,288994000000.0
1032.847,303773000000.0
1033.635,317401000000.0
1033.787,320006000000.0
1034.091,324903000000.0
1034.698,332408000000.0
1035.306,340495000000.0
1035.516,343848000000.0
1035.937,351594000000.0
1036.358,360665000000.0
1036.779,371808000000.0
1037.246,386356000000.0
1037.713,401622000000.0
1038.648,432845000000.0
1038.975,444926000000.0
1039.629,465765000000.0
1040.284,484216000000.0
1040.704,497169000000.0
1041.545,525982000000.0
1042.386,552703000000.0
1042.433,554166000000.0
1042.528,557093000000.0
1042.717,562947000000.0
1043.096,575019000000.0
1043.854,601471000000.0
1044.162,612916000000.0
1044.778,637053000000.0
1045.335,661374000000.0
1045.892,689257000000.0
1047.006,746989000000.0
1047.621,772690000000.0
1048.236,799157000000.0
1048.81,830192000000.0
1049.384,867775000000.0
1049.958,905216000000.0
1050.0,908003000000.0
1050.084,912161000000.0
1050.253,920518000000.0
1050.591,935993000000.0
1051.267,958904000000.0
1051.943,978474000000.0
1053.294,1009790000000.0
1054.646,1033470000000.0
1055.0,1042430000000.0
1055.708,1059280000000.0
1056.416,1063840000000.0
1057.124,1052570000000.0
1058.54,1039340000000.0
1059.248,1059980000000.0
1059.956,1097910000000.0
1060.0,1100620000000.0
1060.088,1107190000000.0
1060.264,1120610000000.0
1060.615,1150360000000.0
1060.967,1185960000000.0
1061.318,1230620000000.0
1061.67,1284450000000.0
1062.021,1349970000000.0
1062.373,1433100000000.0
1062.725,1533700000000.0
1063.076,1654410000000.0
1063.428,1794960000000.0
1063.779,1950350000000.0
1064.131,2119500000000.0
1064.834,2457150000000.0
1065.0,2541220000000.0
1065.332,2688000000000.0
1065.664,2842060000000.0
1066.328,3172800000000.0
1066.66,3356150000000.0
1066.992,3553710000000.0
1067.324,3739960000000.0
1067.656,3905190000000.0
1067.822,3971080000000.0
1067.988,4038530000000.0
1068.154,4057960000000.0
1068.32,4073340000000.0
1068.486,4088390000000.0
1068.652,4054270000000.0
1068.984,3978570000000.0
1069.316,3830600000000.0
1069.648,3674000000000.0
1070.0,3505080000000.0
1070.352,3355130000000.0
1070.703,3231770000000.0
1071.055,3131710000000.0
1071.406,3062740000000.0
1071.758,3011260000000.0
1072.109,2968410000000.0
1072.812,2884360000000.0
1073.516,2759640000000.0
1074.219,2581050000000.0
1075.0,2382990000000.0
1075.391,2303490000000.0
1075.781,2244670000000.0
1076.172,2207900000000.0
1076.562,2194080000000.0
1076.953,2209020000000.0
1077.344,2258730000000.0
1077.734,2339780000000.0
1078.125,2457460000000.0
1078.32,2535610000000.0
1078.516,2621160000000.0
1078.711,2730390000000.0
1078.906,2850830000000.0
1079.102,2990030000000.0
1079.297,3152060000000.0
1079.492,3333890000000.0
1079.688,3544830000000.0
1079.844,3734190000000.0
1080.0,3944670000000.0
1080.156,4176120000000.0
1080.312,4435370000000.0
1080.469,4725780000000.0
