Wavelength,Flux
900.0,3956840.0
903.442,4378090.0
904.998,4581680.0
906.554,4793930.0
908.11,5015160.0
909.667,5245870.0
910.703,5404720.0
911.74,5568120.0
911.84,5584120.0
912.0,5609800.0
912.31,5659860.0
912.779,5736380.0
913.717,5892260.0
914.335,5997140.0
915.329,6169250.0
915.824,6256670.0
915.892,6268780.0
916.028,6312570.0
916.3,6345200.0
916.429,6365060.0
916.558,6392520.0
916.686,6476560.0
916.815,6523820.0
916.944,6536520.0
917.181,6502180.0
917.3,6526370.0
917.418,6664270.0
917.448,6690830.0
917.507,6729920.0
917.626,6788680.0
917.745,6821090.0
917.863,6807840.0
917.982,6681580.0
918.101,6673520.0
918.129,6678890.0
918.186,6689630.0
918.243,6701450.0
918.3,6799960.0
918.413,6997300.0
918.527,7114770.0
918.641,7188540.0
918.869,7276970.0
918.936,7278830.0
919.004,7256750.0
919.072,7202810.0
919.14,7087700.0
919.275,6898350.0
919.313,6905740.0
919.351,6913140.0
919.401,6922880.0
919.501,6994370.0
919.551,7163160.0
919.601,7312320.0
919.651,7434210.0
919.701,7534750.0
919.801,7686830.0
919.901,7792020.0
920.001,7874290.0
920.201,7998120.0
920.401,8054320.0
920.48,8036920.0
920.56,7978390.0
920.64,7848590.0
920.719,7617310.0
920.878,7216460.0
920.921,7225050.0
920.963,7233670.0
921.013,7243830.0
921.113,7324280.0
921.163,7557560.0
921.213,7788820.0
921.313,8195000.0
921.363,8356220.0
921.413,8491000.0
921.513,8698770.0
921.613,8861230.0
921.713,8995450.0
921.913,9204100.0
922.113,9361920.0
922.117,9364690.0
922.167,9397220.0
922.267,9451300.0
922.467,9480380.0
922.506,9465910.0
922.584,9405850.0
922.662,9280140.0
922.74,9056870.0
922.818,8732140.0
922.895,8301870.0
922.992,7759890.0
923.041,7666970.0
923.089,7677200.0
923.114,7682560.0
923.138,7687710.0
923.144,7689000.0
923.15,7690300.0
923.156,7691580.0
923.162,7692870.0
923.187,7698240.0
923.211,7703390.0
923.261,7714360.0
923.308,7829490.0
923.358,8137070.0
923.405,8453900.0
923.499,9108160.0
923.593,9664700.0
923.687,10074700.0
923.741,10257500.0
923.794,10412800.0
923.901,10679500.0
924.007,10897900.0
924.114,11078700.0
924.183,11183400.0
924.322,11365800.0
924.436,11499800.0
924.665,11729000.0
924.688,11748400.0
924.738,11789000.0
924.838,11863700.0
924.939,11928200.0
925.141,12008500.0
925.189,12014100.0
925.285,12000800.0
925.38,11944200.0
925.476,11828000.0
925.579,11598100.0
925.63,11441400.0
925.682,11236400.0
925.733,10980400.0
925.785,10658800.0
925.836,10272600.0
925.887,9845420.0
925.97,9130320.0
926.018,8765600.0
926.067,8453350.0
926.116,8351650.0
926.164,8362850.0
926.189,8368630.0
926.214,8374440.0
926.22,8375830.0
926.226,8377210.0
926.232,8378600.0
926.238,8380000.0
926.263,8385820.0
926.287,8391390.0
926.337,8403100.0
926.385,8528150.0
926.435,8878120.0
926.482,9262940.0
926.532,9732010.0
926.582,10222400.0
926.682,11138700.0
926.732,11524400.0
926.782,11865700.0
926.873,12375100.0
926.964,12787800.0
927.055,13124600.0
927.146,13395500.0
927.263,13682400.0
927.38,13913400.0
927.497,14098000.0
927.73,14404500.0
927.875,14568200.0
928.164,14858500.0
928.487,15141600.0
928.792,15359900.0
929.097,15491600.0
929.401,15510400.0
929.706,15282400.0
929.804,15093500.0
929.902,14816400.0
930.0,14431500.0
930.098,13916400.0
930.196,13247000.0
930.294,12385000.0
930.392,11353200.0
930.49,10334900.0
930.491,10323700.0
930.541,9902700.0
930.589,9562010.0
930.639,9461000.0
930.687,9473470.0
930.711,9479690.0
930.736,9486210.0
930.742,9487750.0
930.748,9489310.0
930.754,9490890.0
930.76,9492450.0
930.785,9498940.0
930.809,9505220.0
930.859,9518260.0
930.907,9645710.0
930.957,10032400.0
931.005,10470500.0
931.055,11007700.0
931.105,11588000.0
931.205,12737100.0
931.302,13696500.0
931.398,14490800.0
931.495,15157600.0
931.591,15714600.0
931.688,16175300.0
931.784,16560800.0
931.79,16582500.0
931.84,16752600.0
931.94,17052600.0
932.14,17529700.0
932.34,17924300.0
932.54,18286600.0
932.74,18608500.0
932.94,18899400.0
933.033,19027700.0
933.219,19262700.0
933.591,19682600.0
934.276,20394900.0
934.895,20960100.0
935.514,21375500.0
935.823,21384400.0
936.133,21172600.0
936.288,20957000.0
936.442,20659100.0
936.597,20225100.0
936.752,19611400.0
936.753,19606400.0
936.803,19360300.0
936.903,18788100.0
937.003,18127500.0
937.103,17351800.0
937.148,16969600.0
937.238,16132300.0
937.328,15158200.0
937.419,14029800.0
937.544,12477700.0
937.593,11991600.0
937.642,11583100.0
937.691,11461400.0
937.74,11476600.0
937.766,11484600.0
937.791,11492400.0
937.797,11494200.0
937.803,11496100.0
937.809,11498000.0
937.815,11499800.0
937.84,11507600.0
937.865,11515300.0
937.915,11530800.0
937.964,11684700.0
938.014,12138200.0
938.062,12653400.0
938.112,13287300.0
938.162,13972600.0
938.262,15344600.0
938.36,16540000.0
938.458,17578900.0
938.556,18522800.0
938.654,19383300.0
938.752,20167700.0
938.85,20879300.0
938.853,20898900.0
938.903,21231800.0
939.003,21836900.0
939.203,22879700.0
939.403,23741300.0
939.603,24481000.0
939.803,25103600.0
940.003,25635300.0
940.203,26115300.0
940.403,26542400.0
940.434,26604000.0
940.496,26725200.0
940.62,26958700.0
940.867,27404500.0
941.362,28204800.0
942.015,29060400.0
942.668,29842100.0
942.894,30091700.0
943.347,30594700.0
943.773,31055800.0
944.625,31888200.0
945.478,32598200.0
946.279,33030300.0
947.079,32842900.0
947.479,32304000.0
947.879,31275300.0
948.08,30491000.0
948.28,29539000.0
948.48,28364000.0
948.68,26939100.0
948.88,25175700.0
949.08,23045300.0
949.18,21786200.0
949.28,20308100.0
949.38,18646400.0
949.48,17059700.0
949.53,16421900.0
949.58,15899400.0
949.63,15746000.0
949.68,15766700.0
949.705,15777000.0
949.73,15787400.0
949.737,15790300.0
949.743,15792800.0
949.749,15795300.0
949.755,15797700.0
949.781,15808500.0
949.806,15818900.0
949.856,15839700.0
949.906,16035900.0
949.956,16606100.0
950.006,17295800.0
950.056,18114200.0
950.106,19001100.0
950.206,20801800.0
950.306,22429300.0
950.406,23847800.0
950.456,24503100.0
950.556,25741400.0
950.756,27946400.0
950.806,28451900.0
950.906,29399200.0
951.106,31083800.0
951.307,32554700.0
951.507,33889600.0
951.707,35033200.0
951.907,36028300.0
952.307,37673400.0
952.407,38020700.0
952.606,38668100.0
953.004,39761700.0
953.402,40661300.0
954.008,41827800.0
955.22,43904900.0
955.609,44522200.0
956.386,45741900.0
957.211,46944200.0
958.812,49225400.0
960.413,51560600.0
960.776,52110100.0
961.14,52654500.0
961.376,53013300.0
961.611,53374500.0
962.081,54112500.0
963.021,55569300.0
963.251,55939900.0
963.71,56696600.0
964.629,58222000.0
964.89,58660000.0
965.412,59562500.0
966.456,61429800.0
966.53,61558800.0
966.678,61818100.0
966.975,62342500.0
967.567,63421400.0
968.169,64561300.0
969.372,66685200.0
969.809,67429500.0
970.683,68916500.0
971.065,69401200.0
971.448,69518800.0
971.653,69001200.0
971.858,68572400.0
971.908,68468800.0
972.008,68271700.0
972.208,67445200.0
972.268,67254000.0
972.37,66968800.0
972.473,66723000.0
972.499,66663200.0
972.524,66610000.0
972.531,66595300.0
972.537,66583000.0
972.543,66570600.0
972.55,66556400.0
972.575,66506100.0
972.601,66455100.0
972.653,66356500.0
972.703,66352100.0
972.803,66372500.0
972.806,66373300.0
972.856,66384500.0
972.956,66409300.0
973.156,66465500.0
973.216,66485100.0
973.336,66563900.0
973.576,67202400.0
973.626,67337800.0
973.726,67612600.0
973.926,68171900.0
974.326,69528400.0
975.126,72547400.0
975.265,73133300.0
975.544,74181400.0
976.101,76290200.0
976.905,79000400.0
978.512,84769400.0
978.544,84880900.0
978.608,85103400.0
978.735,85517600.0
978.989,86321600.0
979.498,88074700.0
980.184,90611000.0
981.556,95102300.0
981.823,95867700.0
982.357,97456800.0
983.424,100780000.0
983.463,100910000.0
983.54,101178000.0
983.694,101620000.0
984.003,102518000.0
984.62,104374000.0
985.102,105859000.0
986.065,109050000.0
986.742,111396000.0
988.095,115809000.0
988.381,116780000.0
988.953,118853000.0
990.021,122758000.0
991.66,128484000.0
993.3,135384000.0
994.94,142671000.0
996.65,150526000.0
998.325,159244000.0
1000.0,169067000.0
1001.912,178933000.0
1003.824,189550000.0
1005.553,198383000.0
1007.282,207922000.0
1009.011,215359000.0
1010.74,222535000.0
1011.604,224155000.0
1012.469,225474000.0
1014.198,225859000.0
1014.249,225836000.0
1014.349,225761000.0
1014.549,225391000.0
1014.749,224882000.0
1014.949,224414000.0
1015.149,223949000.0
1015.349,223485000.0
1015.549,222954000.0
1015.749,222355000.0
1015.928,221809000.0
1016.286,220613000.0
1017.002,218168000.0
1017.657,215762000.0
1018.968,211251000.0
1019.386,209886000.0
1020.223,207308000.0
1021.115,204843000.0
1021.979,202180000.0
1022.844,197185000.0
1023.276,192860000.0
1023.708,186471000.0
1024.141,176815000.0
1024.573,163799000.0
1024.624,161869000.0
1024.674,159937000.0
1024.724,157918000.0
1024.774,155866000.0
1024.824,153746000.0
1024.874,151537000.0
1024.924,149222000.0
1024.974,146722000.0
1025.006,145073000.0
1025.069,141794000.0
1025.132,138086000.0
1025.196,133874000.0
1025.259,129008000.0
1025.322,123424000.0
1025.38,117702000.0
1025.438,111830000.0
1025.492,106660000.0
1025.546,102343000.0
1025.596,99503800.0
1025.646,98401700.0
1025.654,98385600.0
1025.681,98428800.0
1025.708,98487600.0
1025.715,98502900.0
1025.72,98513800.0
1025.722,98518300.0
1025.729,98533500.0
1025.736,98548600.0
1025.763,98607500.0
1025.79,98666900.0
1025.844,99344500.0
1025.871,100458000.0
1025.898,102031000.0
1025.925,104007000.0
1025.952,106281000.0
1026.005,111556000.0
1026.056,116976000.0
1026.106,122333000.0
1026.156,127518000.0
1026.206,132207000.0
1026.256,136471000.0
1026.306,140288000.0
1026.356,143836000.0
1026.406,147093000.0
1026.438,148990000.0
1026.501,152656000.0
1026.628,159526000.0
1026.87,171127000.0
1027.112,181086000.0
1027.355,189841000.0
1027.597,197992000.0
1027.839,204688000.0
1028.082,210842000.0
1028.566,221127000.0
1028.6,221720000.0
1028.668,222904000.0
1028.803,225264000.0
1029.073,229845000.0
1029.614,237614000.0
1030.155,244817000.0
1030.329,247056000.0
1030.676,251667000.0
1031.37,261920000.0
1032.058,272790000.0
1033.433,294490000.0
1033.787,300389000.0
1034.495,311042000.0
1035.516,326710000.0
1035.948,335960000.0
1036.381,347243000.0
1036.813,361615000.0
1037.246,378885000.0
1038.111,415725000.0
1038.975,455616000.0
1039.839,491644000.0
1040.703,524575000.0
1040.754,526568000.0
1040.804,528515000.0
1040.854,530484000.0
1040.904,532483000.0
1040.954,534464000.0
1041.004,536463000.0
1041.054,538453000.0
1041.104,540428000.0
1041.154,542426000.0
1041.204,544477000.0
1041.255,546511000.0
1041.305,548604000.0
1041.355,550679000.0
1041.405,552814000.0
1041.455,555103000.0
1041.505,557332000.0
1041.555,559354000.0
1041.605,561376000.0
1041.655,563450000.0
1041.705,565487000.0
1041.755,567524000.0
1041.805,569620000.0
1041.855,571670000.0
1041.905,573734000.0
1041.955,575851000.0
1042.005,577912000.0
1042.055,579804000.0
1042.105,581710000.0
1042.155,583672000.0
1042.205,585593000.0
1042.255,587483000.0
1042.306,589368000.0
1042.356,591329000.0
1042.406,593229000.0
1042.433,594291000.0
1042.488,596362000.0
1042.597,600550000.0
1042.816,609050000.0
1043.253,627096000.0
1044.128,668524000.0
1044.162,670265000.0
1044.229,673766000.0
1044.364,680954000.0
1044.634,693592000.0
1045.173,718988000.0
1045.892,756125000.0
1047.33,832181000.0
1047.621,848202000.0
1048.202,884095000.0
1048.506,906715000.0
1048.81,932681000.0
1049.418,975794000.0
1050.0,1018000000.0
1051.164,1100580000.0
1051.746,1146740000.0
1052.328,1202910000.0
1052.91,1274040000.0
1053.492,1347030000.0
1054.074,1390160000.0
1054.656,1443600000.0
1055.0,1481720000.0
1055.688,1572470000.0
1056.375,1675900000.0
1057.062,1772100000.0
1057.75,1801510000.0
1058.438,1859810000.0
1058.781,1908640000.0
1059.125,1971310000.0
1059.469,2050970000.0
1059.812,2158090000.0
1060.0,2225780000.0
1060.188,2278420000.0
1060.375,2328300000.0
1060.75,2440220000.0
1061.125,2575360000.0
1061.5,2739810000.0
1061.875,2944270000.0
1062.25,3202580000.0
1062.625,3531160000.0
1063.0,3890640000.0
1063.375,4205970000.0
1063.75,4559690000.0
1064.125,4952290000.0
1064.5,5383370000.0
1065.0,5984080000.0
1066.0,7137660000.0
1066.5,7730080000.0
1067.0,8452660000.0
1067.5,9257850000.0
1068.0,10029400000.0
1068.5,10499200000.0
1069.0,10854700000.0
1070.0,11494700000.0
1070.5,11442600000.0
1071.0,11502500000.0
1071.5,11728700000.0
1072.0,12102400000.0
1072.5,12267700000.0
1073.0,12375800000.0
1073.5,12392200000.0
1074.0,12265500000.0
1074.5,11825700000.0
1075.0,11365800000.0
1075.5,10992700000.0
1076.0,10717700000.0
1076.25,10672800000.0
1076.5,10628400000.0
1076.75,10723000000.0
1077.0,10821500000.0
1077.25,11082200000.0
1077.5,11351300000.0
1077.75,11769000000.0
1078.0,12211800000.0
1078.25,12846800000.0
1078.5,13529600000.0
1078.75,14421900000.0
1079.0,15416000000.0
1079.25,16595100000.0
1079.5,17893400000.0
1079.75,19398500000.0
1080.0,21115700000.0
1080.25,23044000000.0
1080.5,25283700000.0
1080.75,27733600000.0
1081.0,30447900000.0
1081.25,33269600000.0
1081.5,36529600000.0
1081.538,37011500000.0
1081.614,38004100000.0
1081.766,40113700000.0
1082.069,44770900000.0
1082.373,49713800000.0
1082.677,54760200000.0
1083.077,61862400000.0
1083.477,69251700000.0
1084.277,84489200000.0
1085.078,99270900000.0
1085.808,112759000000.0
1086.538,124508000000.0
1087.998,147058000000.0
1088.728,157087000000.0
1089.458,166772000000.0
1090.0,172496000000.0
1090.542,178704000000.0
1091.083,184385000000.0
1091.625,188328000000.0
1092.708,195777000000.0
1093.791,200532000000.0
1094.875,204341000000.0
1095.0,204604000000.0
1095.251,204664000000.0
1095.752,204721000000.0
1096.755,204598000000.0
1097.758,201315000000.0
1098.761,196932000000.0
1099.38,192809000000.0
1100.0,187835000000.0
1101.239,177459000000.0
1102.478,164824000000.0
1103.717,151296000000.0
1105.0,137302000000.0
1106.283,121098000000.0
1107.566,105321000000.0
1110.0,75711300000.0
1111.217,62382000000.0
1112.434,49249000000.0
1113.043,43920400000.0
1113.651,38867400000.0
1114.26,34509900000.0
1114.868,30738200000.0
1115.0,29990100000.0
1115.264,28338500000.0
1115.527,26798800000.0
1115.791,25362300000.0
1116.055,24023200000.0
1116.318,22779000000.0
1116.582,21616400000.0
1117.109,19419100000.0
1117.637,17198300000.0
1118.164,15302300000.0
1118.691,13692800000.0
1119.219,12160300000.0
1119.746,10681800000.0
1120.0,10064600000.0
1120.254,9499500000.0
1120.508,8982230000.0
1120.762,8508130000.0
1121.016,8063900000.0
1121.27,7532320000.0
1121.523,7064160000.0
1121.777,6646330000.0
1122.031,6273260000.0
1122.285,5938630000.0
1122.539,5638110000.0
1122.793,5367220000.0
1123.047,5106600000.0
1123.555,4569780000.0
1123.809,4349880000.0
1124.062,4156170000.0
1124.316,3985270000.0
1124.57,3833250000.0
1125.0,3611810000.0
1125.43,3373430000.0
1125.645,3277390000.0
1125.859,3192300000.0
1126.289,3048750000.0
1126.719,2933480000.0
1127.148,2830970000.0
1127.578,2737490000.0
1128.008,2663980000.0
1128.438,2605270000.0
1128.867,2557010000.0
1129.727,2470750000.0
1130.0,2450460000.0
1130.547,2417800000.0
1131.154,2387340000.0
1132.308,2341520000.0
1133.462,2311990000.0
1134.616,2292650000.0
1136.154,2277840000.0
1137.692,2273820000.0
1139.23,2278730000.0
1140.0,2281650000.0
1141.539,2295740000.0
1144.617,2340100000.0
1145.0,2347440000.0
1145.766,2360240000.0
1147.297,2391530000.0
1150.0,2453470000.0
1152.703,2522810000.0
1155.406,2594460000.0
1158.109,2667070000.0
1160.812,2741970000.0
1163.516,2817440000.0
1165.769,2879290000.0
1170.276,2993260000.0
1174.783,3096230000.0
1179.29,3209710000.0
1181.538,3277770000.0
1185.628,3426200000.0
1189.718,3595430000.0
1191.767,3676010000.0
1193.816,3747330000.0
1195.866,3809340000.0
1197.915,3864960000.0
1199.964,3917070000.0
1202.014,3964820000.0
1204.063,3997290000.0
1206.113,3994010000.0
1207.137,3970210000.0
1208.162,3927590000.0
1208.212,3925510000.0
1208.262,3923500000.0
1208.312,3921560000.0
1208.362,3919670000.0
1208.412,3917850000.0
1208.462,3916080000.0
1208.512,3913920000.0
1208.562,3910720000.0
1208.612,3907610000.0
1208.662,3904560000.0
1208.713,3901550000.0
1208.763,3898600000.0
1208.813,3895730000.0
1208.863,3892930000.0
1208.913,3890190000.0
1208.963,3887530000.0
1209.013,3884350000.0
1209.063,3879580000.0
1209.113,3874940000.0
1209.163,3870420000.0
1209.213,3866030000.0
1209.263,3861750000.0
1209.313,3857580000.0
1209.363,3853520000.0
1209.413,3849460000.0
1209.463,3845680000.0
1209.513,3841700000.0
1209.563,3836830000.0
1209.613,3832080000.0
1209.663,3827650000.0
1209.714,3823490000.0
1209.764,3819440000.0
1209.814,3815500000.0
1209.864,3811650000.0
1209.914,3807910000.0
1209.964,3804210000.0
1210.014,3800350000.0
1210.064,3796050000.0
1210.114,3791860000.0
1210.164,3787720000.0
1210.211,3783900000.0
1210.305,3776520000.0
1210.494,3762720000.0
1210.871,3720520000.0
1211.625,3626280000.0
1212.261,3552560000.0
1213.534,3432730000.0
1213.922,3410000000.0
1214.31,3397970000.0
1214.822,3392210000.0
1215.078,3382930000.0
1215.335,3328440000.0
1215.399,3294650000.0
1215.463,3247340000.0
1215.513,3210180000.0
1215.563,3188100000.0
1215.591,3186680000.0
1215.623,3188130000.0
1215.655,3189660000.0
1215.663,3190050000.0
1215.67,3190390000.0
1215.679,3190820000.0
1215.687,3191200000.0
1215.719,3192750000.0
1215.751,3194420000.0
1215.815,3217780000.0
1215.847,3244460000.0
1215.879,3274680000.0
1215.929,3324080000.0
1215.979,3367140000.0
1216.007,3389670000.0
1216.063,3429810000.0
1216.174,3495690000.0
1216.397,3603740000.0
1216.52,3662030000.0
1216.767,3759960000.0
1217.032,3883420000.0
1217.562,4124590000.0
1218.623,4575060000.0
1219.081,4737910000.0
1219.539,4916330000.0
1219.998,5080440000.0
1220.456,5199640000.0
1221.131,5394070000.0
1221.806,5559460000.0
1222.481,5664640000.0
1222.831,5754840000.0
1223.18,5847190000.0
1223.879,6020370000.0
1224.554,6163780000.0
1225.229,6280740000.0
1226.579,6459390000.0
1227.279,6537090000.0
1228.679,6702150000.0
1229.328,6781760000.0
1230.626,6953280000.0
1231.378,7048670000.0
1232.882,7243760000.0
1233.427,7315490000.0
1234.517,7456780000.0
1235.476,7576300000.0
1237.394,7815810000.0
1237.526,7833170000.0
1237.791,7866090000.0
1238.32,7928050000.0
1239.379,8057210000.0
1239.575,8082760000.0
1239.968,8132980000.0
1240.753,8234260000.0
1241.625,8335190000.0
1243.368,8555210000.0
1246.854,9018730000.0
1250.341,9503470000.0
1250.812,9566880000.0
1251.754,9701870000.0
1253.639,9983850000.0
1257.409,10558000000.0
1260.0,10982000000.0
1262.591,11450000000.0
1265.0,11876000000.0
1269.817,12738300000.0
1270.0,12772900000.0
1270.365,12841800000.0
1271.096,12980000000.0
1272.557,13260200000.0
1275.0,13727200000.0
1279.887,14745200000.0
1280.0,14768900000.0
1280.227,14816400000.0
1280.68,14911500000.0
1281.586,15101200000.0
1283.398,15471100000.0
1285.0,15798600000.0
1288.203,16483600000.0
1290.0,16882600000.0
1293.594,17717100000.0
1295.0,18061500000.0
1297.812,18760500000.0
1300.0,19308900000.0
1305.0,20574700000.0
1310.0,21910400000.0
1315.0,23324300000.0
1320.0,24817400000.0
1325.0,26396200000.0
1330.0,28068300000.0
1335.0,29829500000.0
1340.0,31671700000.0
1345.0,33599200000.0
1350.0,35627700000.0
1355.0,37771100000.0
1360.0,40009800000.0
1365.0,42362100000.0
1370.0,44839400000.0
1374.231,47020400000.0
1378.462,49287100000.0
1379.231,49709400000.0
1380.0,50134900000.0
1381.538,50995500000.0
1384.614,52754900000.0
1385.0,52979000000.0
1385.771,53429600000.0
1387.314,54340300000.0
1390.0,55956000000.0
1395.0,59073300000.0
1400.0,62336600000.0
1405.0,65755200000.0
1410.0,69340700000.0
1415.0,73088400000.0
1420.0,76994000000.0
1425.0,81072700000.0
1430.0,85333300000.0
1435.0,89760800000.0
1440.0,94348200000.0
1445.0,99113800000.0
1450.0,104073000000.0
1455.0,109229000000.0
1460.0,114598000000.0
1465.0,120184000000.0
1470.0,126040000000.0
1473.462,130255000000.0
1476.923,134605000000.0
1478.462,136585000000.0
1480.0,138593000000.0
1483.076,142701000000.0
1485.0,145332000000.0
1488.848,150730000000.0
1490.0,152377000000.0
1492.304,155711000000.0
1495.0,159666000000.0
1500.0,167139000000.0
1505.0,174834000000.0
1510.0,182866000000.0
1515.0,191325000000.0
1520.0,200164000000.0
1525.0,209162000000.0
1530.0,218079000000.0
1535.0,226916000000.0
1540.0,235915000000.0
1545.0,245350000000.0
1550.0,255373000000.0
1555.0,265987000000.0
