Wavelength,Flux
900.0,130359000.0
903.442,142329000.0
904.998,148059000.0
906.554,153996000.0
908.11,160148000.0
909.667,166525000.0
910.703,170894000.0
911.74,175371000.0
911.84,175808000.0
912.0,176509000.0
912.31,177876000.0
912.779,179962000.0
913.717,184199000.0
913.871,184906000.0
914.026,185615000.0
914.181,192434000.0
914.335,196595000.0
914.49,201725000.0
914.644,207576000.0
914.798,213260000.0
914.953,216816000.0
914.992,216535000.0
915.03,215306000.0
915.069,212649000.0
915.107,208694000.0
915.146,202433000.0
915.185,195131000.0
915.223,191357000.0
915.262,191375000.0
915.312,191612000.0
915.329,191692000.0
915.379,191929000.0
915.429,192206000.0
915.479,197822000.0
915.529,207181000.0
915.579,211246000.0
915.629,207566000.0
915.679,198114000.0
915.729,193607000.0
915.779,193832000.0
915.824,194048000.0
915.892,194374000.0
915.926,194618000.0
915.96,198394000.0
915.994,207302000.0
916.028,217262000.0
916.078,228912000.0
916.128,234081000.0
916.178,230450000.0
916.228,219037000.0
916.278,203803000.0
916.328,196520000.0
916.378,196716000.0
916.428,196958000.0
916.479,197205000.0
916.529,197486000.0
916.579,205728000.0
916.629,225830000.0
916.679,247044000.0
916.729,264422000.0
916.779,275305000.0
916.829,277290000.0
916.879,269536000.0
916.929,252782000.0
916.979,230858000.0
917.029,209262000.0
917.079,200201000.0
917.129,200383000.0
917.179,200630000.0
917.181,200640000.0
917.231,200887000.0
917.281,201168000.0
917.331,210444000.0
917.381,235228000.0
917.431,265493000.0
917.448,276530000.0
917.498,307833000.0
917.548,334798000.0
917.598,354878000.0
917.648,365148000.0
917.698,363953000.0
917.748,350614000.0
917.798,326836000.0
917.848,295205000.0
917.898,260495000.0
917.948,229956000.0
917.998,208201000.0
918.048,204956000.0
918.098,205207000.0
918.129,205364000.0
918.191,205679000.0
918.223,205837000.0
918.254,208195000.0
918.285,218563000.0
918.316,236555000.0
918.347,258366000.0
918.379,283553000.0
918.41,312194000.0
918.441,342259000.0
918.503,404862000.0
918.534,434581000.0
918.566,462120000.0
918.597,487077000.0
918.628,508421000.0
918.659,525557000.0
918.69,538275000.0
918.722,546742000.0
918.753,550242000.0
918.784,548645000.0
918.815,541735000.0
918.846,529778000.0
918.878,512529000.0
918.909,489983000.0
918.94,462702000.0
918.971,432215000.0
919.002,398882000.0
919.004,397053000.0
919.054,341950000.0
919.104,290671000.0
919.154,249225000.0
919.204,219447000.0
919.254,211105000.0
919.302,211351000.0
919.351,211602000.0
919.448,212109000.0
919.497,220561000.0
919.545,249893000.0
919.594,292369000.0
919.642,348115000.0
919.691,414256000.0
919.739,486128000.0
919.836,629960000.0
919.885,695214000.0
919.933,752282000.0
919.982,801531000.0
920.03,841948000.0
920.079,871614000.0
920.127,890587000.0
920.176,898013000.0
920.224,893385000.0
920.273,876175000.0
920.321,846012000.0
920.37,802031000.0
920.419,747053000.0
920.467,681679000.0
920.516,607432000.0
920.56,534757000.0
920.61,452894000.0
920.66,376849000.0
920.71,312777000.0
920.76,264381000.0
920.81,230759000.0
920.86,219574000.0
920.91,219806000.0
920.963,220091000.0
921.069,220764000.0
921.096,224623000.0
921.122,235747000.0
921.149,253660000.0
921.175,275434000.0
921.202,301398000.0
921.229,333007000.0
921.255,368938000.0
921.282,409886000.0
921.308,454629000.0
921.335,502398000.0
921.361,552796000.0
921.388,605046000.0
921.441,711767000.0
921.547,920860000.0
921.6,1019090000.0
921.653,1112610000.0
921.706,1199490000.0
921.76,1276140000.0
921.813,1344630000.0
921.866,1402330000.0
921.919,1449090000.0
921.972,1484740000.0
922.025,1506790000.0
922.078,1515120000.0
922.117,1512490000.0
922.167,1498020000.0
922.217,1470860000.0
922.267,1431180000.0
922.317,1379900000.0
922.367,1316410000.0
922.417,1241620000.0
922.467,1156810000.0
922.506,1083480000.0
922.556,985787000.0
922.606,881759000.0
922.656,775727000.0
922.756,564694000.0
922.791,496541000.0
922.825,434021000.0
922.86,378477000.0
922.895,331640000.0
922.93,293352000.0
922.964,263961000.0
922.992,245171000.0
923.042,231617000.0
923.089,231755000.0
923.114,231896000.0
923.138,232031000.0
923.144,232064000.0
923.15,232098000.0
923.156,232132000.0
923.162,232166000.0
923.187,232307000.0
923.211,232441000.0
923.261,233033000.0
923.308,247026000.0
923.358,285068000.0
923.405,335985000.0
923.455,408535000.0
923.505,498856000.0
923.555,602381000.0
923.605,715337000.0
923.655,833721000.0
923.705,955305000.0
923.794,1177300000.0
923.972,1615210000.0
924.078,1854720000.0
924.183,2067960000.0
924.236,2163020000.0
924.288,2249690000.0
924.341,2328460000.0
924.394,2398910000.0
924.436,2447760000.0
924.52,2527310000.0
924.604,2581870000.0
924.646,2599220000.0
924.688,2609810000.0
924.772,2610170000.0
924.814,2599710000.0
924.855,2580800000.0
924.939,2520850000.0
924.981,2480110000.0
925.023,2432010000.0
925.106,2314420000.0
925.148,2246510000.0
925.189,2171920000.0
925.272,2003170000.0
925.313,1912170000.0
925.355,1815640000.0
925.438,1609280000.0
925.521,1394640000.0
925.579,1240820000.0
925.696,936722000.0
925.754,790950000.0
925.813,651009000.0
925.842,585698000.0
925.871,524044000.0
925.9,467262000.0
925.929,416180000.0
925.958,372221000.0
925.97,356533000.0
926.02,300701000.0
926.067,263769000.0
926.117,249452000.0
926.165,249619000.0
926.189,249763000.0
926.214,249914000.0
926.22,249949000.0
926.226,249986000.0
926.232,250022000.0
926.238,250058000.0
926.263,250208000.0
926.287,250353000.0
926.337,250883000.0
926.385,265791000.0
926.435,306563000.0
926.482,360884000.0
926.532,438441000.0
926.582,535460000.0
926.632,647317000.0
926.682,770346000.0
926.732,900316000.0
926.782,1035540000.0
926.832,1174330000.0
926.873,1293800000.0
926.955,1535100000.0
927.119,2025820000.0
927.263,2440070000.0
927.335,2637440000.0
927.407,2825920000.0
927.55,3172720000.0
927.622,3328420000.0
927.694,3472400000.0
927.837,3731880000.0
927.875,3791700000.0
927.951,3900530000.0
928.102,4081720000.0
928.177,4154280000.0
928.253,4214010000.0
928.404,4292610000.0
928.487,4312310000.0
928.57,4315110000.0
928.653,4300750000.0
928.736,4268700000.0
928.819,4218640000.0
928.902,4151110000.0
928.985,4066260000.0
929.068,3965230000.0
929.097,3926380000.0
929.154,3841600000.0
929.268,3643000000.0
929.382,3414200000.0
929.439,3287130000.0
929.496,3151950000.0
929.61,2855870000.0
929.706,2585950000.0
929.802,2301590000.0
929.898,2006460000.0
929.994,1704060000.0
930.098,1382200000.0
930.15,1224270000.0
930.202,1072300000.0
930.254,925068000.0
930.306,784639000.0
930.333,716186000.0
930.359,652135000.0
930.409,538888000.0
930.459,443769000.0
930.491,393218000.0
930.541,333048000.0
930.589,292453000.0
930.639,277887000.0
930.687,278134000.0
930.711,278293000.0
930.736,278459000.0
930.742,278499000.0
930.748,278538000.0
930.754,278578000.0
930.76,278618000.0
930.785,278784000.0
930.809,278943000.0
930.859,279425000.0
930.907,294669000.0
930.957,338451000.0
931.005,398080000.0
931.055,481830000.0
931.105,586883000.0
931.155,708523000.0
931.205,842842000.0
931.255,985506000.0
931.305,1134440000.0
931.355,1288190000.0
931.398,1427330000.0
931.484,1711160000.0
931.657,2298250000.0
931.79,2749490000.0
931.923,3184800000.0
932.057,3594670000.0
932.19,3975090000.0
932.324,4326150000.0
932.457,4653240000.0
932.591,4952500000.0
932.724,5225610000.0
932.857,5475070000.0
933.033,5767540000.0
933.209,6023630000.0
933.384,6242530000.0
933.56,6426360000.0
933.736,6574910000.0
933.911,6689740000.0
934.087,6771420000.0
934.276,6822540000.0
934.465,6834860000.0
934.654,6807190000.0
934.843,6737790000.0
935.032,6624050000.0
935.221,6462450000.0
935.41,6257520000.0
935.514,6118370000.0
935.722,5793160000.0
935.825,5608330000.0
935.929,5401030000.0
936.033,5176430000.0
936.137,4928170000.0
936.241,4662910000.0
936.345,4379110000.0
936.448,4072640000.0
936.552,3747430000.0
936.653,3409560000.0
936.753,3054770000.0
936.853,2689970000.0
936.954,2317930000.0
937.148,1605570000.0
937.245,1270270000.0
937.342,957961000.0
937.391,813114000.0
937.439,681112000.0
937.488,565887000.0
937.536,472809000.0
937.544,460244000.0
937.594,391687000.0
937.642,344878000.0
937.692,328210000.0
937.741,328495000.0
937.766,328687000.0
937.791,328880000.0
937.797,328926000.0
937.803,328972000.0
937.809,329018000.0
937.815,329064000.0
937.84,329257000.0
937.865,329450000.0
937.915,329975000.0
937.964,347526000.0
938.014,397966000.0
938.062,465856000.0
938.112,560915000.0
938.162,680279000.0
938.212,818870000.0
938.262,972315000.0
938.312,1135400000.0
938.362,1305920000.0
938.412,1482650000.0
938.458,1653200000.0
938.55,2003870000.0
938.642,2368040000.0
938.734,2735740000.0
938.853,3204780000.0
939.09,4104670000.0
939.209,4520720000.0
939.327,4916390000.0
939.446,5292820000.0
939.564,5648650000.0
939.683,5981800000.0
939.801,6297050000.0
940.038,6875600000.0
940.275,7390900000.0
940.434,7700230000.0
940.751,8242510000.0
941.069,8719370000.0
941.386,9114870000.0
941.703,9456060000.0
942.015,9747850000.0
942.327,9997930000.0
942.639,10210300000.0
942.894,10358000000.0
943.404,10612100000.0
943.773,10714400000.0
944.142,10765500000.0
944.625,10751800000.0
945.108,10639000000.0
945.478,10481500000.0
945.848,10250900000.0
946.218,9940560000.0
946.403,9749560000.0
946.588,9529110000.0
946.773,9276740000.0
947.079,8779730000.0
947.232,8485700000.0
947.385,8157930000.0
947.538,7795750000.0
947.692,7400870000.0
947.845,6967720000.0
947.998,6495960000.0
948.151,5974680000.0
948.304,5413740000.0
948.457,4806300000.0
948.61,4147060000.0
948.68,3834560000.0
948.819,3196850000.0
949.08,2009860000.0
949.18,1586480000.0
949.28,1193410000.0
949.33,1012050000.0
949.38,848085000.0
949.43,707289000.0
949.48,595100000.0
949.53,511762000.0
949.58,451841000.0
949.63,432255000.0
949.68,432645000.0
949.705,432892000.0
949.73,433137000.0
949.737,433207000.0
949.743,433266000.0
949.749,433325000.0
949.755,433385000.0
949.781,433640000.0
949.806,433888000.0
949.856,434486000.0
949.906,455195000.0
949.956,516699000.0
950.006,602136000.0
950.056,716993000.0
950.106,861484000.0
950.156,1030130000.0
950.206,1217420000.0
950.256,1416500000.0
950.306,1624570000.0
950.356,1842090000.0
950.406,2066310000.0
950.456,2298290000.0
950.556,2776310000.0
950.656,3268680000.0
950.806,4005840000.0
950.956,4727270000.0
951.106,5411780000.0
951.256,6058430000.0
951.406,6659340000.0
951.556,7228940000.0
951.707,7758440000.0
951.857,8254790000.0
952.007,8721450000.0
952.307,9564970000.0
952.407,9818920000.0
952.607,10291200000.0
952.807,10724200000.0
953.008,11121800000.0
953.408,11828900000.0
953.808,12454200000.0
954.008,12740300000.0
954.407,13273100000.0
955.206,14200600000.0
955.609,14615900000.0
956.415,15434900000.0
957.211,16184900000.0
958.802,17658800000.0
958.812,17667800000.0
958.862,17714600000.0
958.962,17808100000.0
959.162,17995900000.0
959.362,18184700000.0
959.562,18374900000.0
959.762,18566400000.0
959.962,18759400000.0
960.162,18954100000.0
960.362,19150400000.0
960.413,19200600000.0
960.515,19301500000.0
960.719,19504600000.0
960.747,19533300000.0
960.776,19766100000.0
960.805,19796500000.0
960.833,19827000000.0
960.89,19888000000.0
961.005,20010000000.0
961.14,20155400000.0
961.376,20411100000.0
961.611,20668300000.0
962.081,21189400000.0
963.021,22245800000.0
963.251,22505700000.0
963.71,23015600000.0
964.629,23990000000.0
964.89,24246400000.0
965.412,24706500000.0
965.934,25086000000.0
966.456,25329400000.0
966.53,25355500000.0
966.678,25405200000.0
966.975,25435700000.0
967.567,25343300000.0
967.864,25186000000.0
968.16,24991700000.0
968.169,24983600000.0
968.219,24938800000.0
968.319,24852700000.0
968.519,24693800000.0
968.719,24535500000.0
968.919,24261100000.0
969.119,24026100000.0
969.319,23824100000.0
969.519,23601500000.0
969.719,23400300000.0
969.809,23319600000.0
969.989,23174000000.0
970.349,22805800000.0
971.069,22152100000.0
971.163,22074800000.0
971.258,22003100000.0
971.306,21969300000.0
971.353,21825400000.0
971.401,21445100000.0
971.448,21129900000.0
971.498,20847600000.0
971.598,20381500000.0
971.698,20008400000.0
971.798,19697600000.0
971.858,19532200000.0
971.978,19236300000.0
972.098,18729200000.0
972.218,18251700000.0
972.268,18075400000.0
972.367,17750500000.0
972.37,17742400000.0
972.42,17593700000.0
972.473,17443100000.0
972.499,17371700000.0
972.524,17304400000.0
972.531,17285700000.0
972.537,17269900000.0
972.543,17254000000.0
972.55,17235700000.0
972.575,17171000000.0
972.601,17105700000.0
972.653,16979600000.0
972.703,16928200000.0
972.803,16849200000.0
972.806,16846800000.0
972.856,16808500000.0
972.956,16733500000.0
973.156,16590600000.0
973.216,16549900000.0
973.336,16498600000.0
973.456,16630000000.0
973.576,16764600000.0
973.626,16821800000.0
973.726,16937700000.0
973.926,17175900000.0
974.326,17826700000.0
974.726,18575600000.0
975.126,19313000000.0
975.265,19598700000.0
975.544,20069500000.0
975.823,20547400000.0
976.38,21347700000.0
976.905,22057900000.0
977.43,22831000000.0
977.955,23791100000.0
978.544,24812400000.0
979.133,25889400000.0
979.723,27335300000.0
979.953,28124400000.0
980.184,28915400000.0
980.415,29837800000.0
980.645,31024500000.0
980.876,31842200000.0
981.106,32700000000.0
981.568,34301100000.0
981.823,34975200000.0
982.078,35671600000.0
982.589,36948300000.0
983.463,38836500000.0
984.337,40919500000.0
985.102,42946700000.0
985.867,44641000000.0
986.633,46332700000.0
986.742,46586900000.0
986.961,47046300000.0
987.399,47970300000.0
988.275,49696700000.0
988.381,49673200000.0
988.593,49628900000.0
989.017,49912400000.0
989.441,50599900000.0
989.865,50853700000.0
990.021,50919800000.0
990.333,50770200000.0
990.644,50315100000.0
990.956,49958700000.0
991.267,49842200000.0
991.579,49752500000.0
991.66,49872600000.0
991.823,50113400000.0
992.148,50594100000.0
992.474,51390900000.0
992.799,52328000000.0
993.049,53220600000.0
993.3,54355200000.0
993.801,56881900000.0
994.803,61439900000.0
995.304,62103400000.0
995.805,62156400000.0
996.227,62516500000.0
996.65,63701700000.0
996.861,64637500000.0
997.073,65589600000.0
997.284,67037600000.0
997.495,68658000000.0
997.707,70435900000.0
997.918,72278100000.0
998.129,74231200000.0
998.34,76358800000.0
998.552,78428900000.0
998.763,79886700000.0
998.974,81398300000.0
999.186,82837200000.0
999.291,83085600000.0
999.397,83309500000.0
999.503,83531500000.0
999.608,83845200000.0
999.714,84155500000.0
999.74,84232600000.0
999.767,93934600000.0
999.793,94016900000.0
999.82,94098500000.0
999.87,94252300000.0
999.97,94214800000.0
1000.0,94175900000.0
1000.061,94130700000.0
1000.182,94033700000.0
1000.426,93814000000.0
1000.669,93089100000.0
1000.912,91964100000.0
1001.398,89444900000.0
1001.912,86893000000.0
1002.94,81986900000.0
1003.824,77708200000.0
1004.688,73810900000.0
1005.553,70279800000.0
1006.417,67096800000.0
1007.282,64246600000.0
1008.146,61653100000.0
1009.011,59387600000.0
1009.875,57378000000.0
1010.74,55562100000.0
1011.604,53970400000.0
1012.469,52573500000.0
1014.198,50259900000.0
1014.249,50200700000.0
1014.349,50087700000.0
1014.549,49867500000.0
1014.749,49646200000.0
1014.949,49440800000.0
1015.149,49228300000.0
1015.349,49024800000.0
1015.549,48830400000.0
1015.749,48634400000.0
1015.928,48470100000.0
1016.286,48128600000.0
1017.002,47464100000.0
1017.657,46832500000.0
1018.968,45432800000.0
1019.386,44897500000.0
1020.223,43601800000.0
1020.641,42763500000.0
1021.06,41764900000.0
1021.115,41608800000.0
1021.225,41295700000.0
1021.446,40671500000.0
1021.887,39151200000.0
1022.329,37280100000.0
1022.55,36197800000.0
1022.77,34903600000.0
1022.844,34467900000.0
1022.991,33568100000.0
1023.139,32427500000.0
1023.286,31276200000.0
1023.581,28731900000.0
1023.729,27224100000.0
1023.876,25737900000.0
1024.024,24109200000.0
1024.171,22104500000.0
1024.466,18258300000.0
1024.52,17496700000.0
1024.574,16661200000.0
1024.682,15036400000.0
1024.898,11790400000.0
1025.006,10132100000.0
1025.223,6771820000.0
1025.276,5910380000.0
1025.33,5052720000.0
1025.357,4638130000.0
1025.384,4239900000.0
1025.411,3859230000.0
1025.438,3508450000.0
1025.465,3192290000.0
1025.492,2912570000.0
1025.519,2673350000.0
1025.545,2479740000.0
1025.596,2215420000.0
1025.646,2115570000.0
1025.654,2113230000.0
1025.681,2113160000.0
1025.708,2114250000.0
1025.715,2114530000.0
1025.72,2114740000.0
1025.722,2114820000.0
1025.729,2115100000.0
1025.736,2115380000.0
1025.763,2116480000.0
1025.79,2117590000.0
1025.817,2124080000.0
1025.844,2164870000.0
1025.871,2255940000.0
1025.898,2391770000.0
1025.925,2570050000.0
1025.952,2784330000.0
1025.979,3044230000.0
1026.005,3342930000.0
1026.056,4009140000.0
1026.106,4757220000.0
1026.156,5563610000.0
1026.206,6390890000.0
1026.256,7223350000.0
1026.306,8054690000.0
1026.356,8880340000.0
1026.406,9692460000.0
1026.438,10199600000.0
1026.501,11179000000.0
1026.628,13208200000.0
1026.754,15173900000.0
1026.87,16966400000.0
1027.102,20436900000.0
1027.218,22005800000.0
1027.333,23618000000.0
1027.565,26758400000.0
1027.797,29338000000.0
1028.028,31919200000.0
1028.26,34101600000.0
1028.492,36320700000.0
1028.6,37163900000.0
1028.708,37975500000.0
1028.924,39584600000.0
1029.141,41009100000.0
1029.357,42304900000.0
1029.79,44652600000.0
1030.222,46749200000.0
1030.329,47229200000.0
1030.542,48187000000.0
1030.969,50126500000.0
1031.823,53649600000.0
1032.058,54511800000.0
1032.529,56075300000.0
1033.47,58954300000.0
1033.787,59891300000.0
1034.421,61494200000.0
1035.516,64104200000.0
1036.381,67092400000.0
1037.246,71360100000.0
1038.11,76278000000.0
1038.975,81766500000.0
1039.839,86767900000.0
1040.704,91665500000.0
1041.568,97410100000.0
1042.433,102826000000.0
1044.162,114613000000.0
1045.026,121615000000.0
1045.891,130183000000.0
1045.942,130744000000.0
1045.992,131300000000.0
1046.042,131837000000.0
1046.092,132375000000.0
1046.142,132917000000.0
1046.192,133464000000.0
1046.242,134016000000.0
1046.292,134573000000.0
1046.342,135135000000.0
1046.392,135702000000.0
1046.443,136275000000.0
1046.493,136852000000.0
1046.543,137365000000.0
1046.593,137869000000.0
1046.643,138376000000.0
1046.693,138886000000.0
1046.743,139400000000.0
1046.793,139917000000.0
1046.843,140437000000.0
1046.893,140960000000.0
1046.943,141488000000.0
1046.993,142018000000.0
1047.043,142467000000.0
1047.093,142904000000.0
1047.143,143342000000.0
1047.193,143781000000.0
1047.243,144221000000.0
1047.293,144662000000.0
1047.343,145105000000.0
1047.393,145549000000.0
1047.443,145994000000.0
1047.494,146440000000.0
1047.544,146863000000.0
1047.594,147284000000.0
1047.621,147514000000.0
1047.676,147974000000.0
1047.785,148898000000.0
1048.004,150759000000.0
1048.441,155127000000.0
1048.81,159588000000.0
1049.548,169891000000.0
1050.0,176052000000.0
1050.452,180826000000.0
1050.905,184431000000.0
1051.81,190311000000.0
1052.714,195433000000.0
1053.619,199006000000.0
1054.524,202376000000.0
1055.0,205006000000.0
1055.952,209583000000.0
1056.904,208276000000.0
1057.856,204565000000.0
1058.333,204356000000.0
1058.809,205968000000.0
1059.285,209467000000.0
1059.761,214777000000.0
1060.0,217935000000.0
1060.479,225945000000.0
1060.957,236212000000.0
1061.196,242603000000.0
1061.436,249639000000.0
1061.675,258023000000.0
1061.914,267508000000.0
1062.153,278646000000.0
1062.393,291491000000.0
1062.632,306133000000.0
1062.871,322932000000.0
1063.11,341719000000.0
1063.35,362536000000.0
1063.589,385340000000.0
1063.828,409227000000.0
1064.307,460350000000.0
1064.785,511628000000.0
1065.0,535613000000.0
1065.43,579166000000.0
1065.859,624870000000.0
1066.289,674679000000.0
1066.719,729276000000.0
1067.578,841791000000.0
1067.793,861688000000.0
1068.008,881618000000.0
1068.223,886453000000.0
1068.438,891157000000.0
1068.652,884299000000.0
1068.867,872869000000.0
1069.082,856936000000.0
1069.297,834250000000.0
1069.727,787185000000.0
1070.0,757348000000.0
1070.273,730338000000.0
1070.547,706000000000.0
1070.82,686677000000.0
1071.094,670225000000.0
1071.367,658000000000.0
1071.641,648048000000.0
1072.188,632975000000.0
1072.734,618303000000.0
1073.281,598074000000.0
1073.828,570845000000.0
1074.375,539227000000.0
1074.922,508059000000.0
