Wavelength,Flux
900.0,913642000.0
903.442,990162000.0
904.998,1026600000.0
906.554,1064220000.0
908.11,1103080000.0
909.667,1143210000.0
910.703,1170640000.0
911.74,1198680000.0
911.84,1201420000.0
912.0,1205810000.0
912.31,1214350000.0
912.779,1227370000.0
913.717,1253800000.0
914.335,1273140000.0
915.329,1300410000.0
915.824,1315020000.0
915.892,1317050000.0
916.028,1330640000.0
916.164,1345690000.0
916.297,1329690000.0
916.429,1333090000.0
916.495,1335080000.0
916.561,1337720000.0
916.628,1353000000.0
916.694,1378780000.0
916.76,1398840000.0
916.826,1406240000.0
916.892,1397490000.0
916.958,1375720000.0
917.025,1354890000.0
917.091,1353100000.0
917.157,1355120000.0
917.181,1355860000.0
917.231,1357380000.0
917.331,1363460000.0
917.39,1387760000.0
917.448,1425860000.0
917.565,1492500000.0
917.623,1510670000.0
917.682,1516730000.0
917.74,1509530000.0
917.799,1487610000.0
917.857,1451310000.0
917.916,1411100000.0
917.974,1384550000.0
918.033,1382060000.0
918.129,1385040000.0
918.225,1388040000.0
918.273,1392050000.0
918.322,1412860000.0
918.37,1452890000.0
918.418,1502940000.0
918.514,1597670000.0
918.611,1665830000.0
918.707,1703880000.0
918.755,1711570000.0
918.803,1711140000.0
918.851,1701930000.0
918.9,1682560000.0
918.948,1652100000.0
918.996,1611190000.0
919.004,1603240000.0
919.054,1548870000.0
919.154,1445570000.0
919.253,1420360000.0
919.351,1423490000.0
919.4,1425060000.0
919.45,1426640000.0
919.499,1431830000.0
919.548,1459680000.0
919.597,1513220000.0
919.647,1583370000.0
919.745,1728200000.0
919.844,1845930000.0
919.942,1932720000.0
920.041,1990430000.0
920.139,2023460000.0
920.238,2031000000.0
920.336,2008900000.0
920.385,1985030000.0
920.435,1950350000.0
920.484,1903360000.0
920.533,1845970000.0
920.56,1809670000.0
920.614,1726570000.0
920.667,1637220000.0
920.721,1553770000.0
920.775,1494820000.0
920.829,1472720000.0
920.882,1473020000.0
920.963,1475670000.0
921.125,1489690000.0
921.165,1521720000.0
921.205,1573970000.0
921.246,1643500000.0
921.286,1721750000.0
921.336,1822170000.0
921.436,2007050000.0
921.486,2087560000.0
921.536,2159190000.0
921.586,2222920000.0
921.636,2279190000.0
921.736,2371240000.0
921.836,2441110000.0
921.936,2490720000.0
922.036,2522790000.0
922.117,2535610000.0
922.198,2535350000.0
922.279,2520060000.0
922.36,2487450000.0
922.441,2432290000.0
922.506,2370320000.0
922.571,2290060000.0
922.635,2190450000.0
922.7,2071460000.0
922.765,1936290000.0
922.83,1793200000.0
922.895,1661380000.0
922.928,1609630000.0
922.96,1571890000.0
922.992,1551360000.0
923.042,1545520000.0
923.089,1547080000.0
923.114,1547940000.0
923.138,1548770000.0
923.144,1548970000.0
923.15,1549180000.0
923.156,1549390000.0
923.162,1549590000.0
923.187,1550450000.0
923.211,1551280000.0
923.261,1553060000.0
923.308,1562280000.0
923.355,1602870000.0
923.402,1676290000.0
923.405,1682030000.0
923.455,1789630000.0
923.505,1911570000.0
923.555,2034650000.0
923.655,2273900000.0
923.724,2423770000.0
923.794,2558370000.0
923.864,2676580000.0
923.933,2782740000.0
924.003,2874830000.0
924.072,2955160000.0
924.183,3064900000.0
924.294,3153530000.0
924.405,3225050000.0
924.436,3242390000.0
924.498,3273590000.0
924.623,3322880000.0
924.688,3341400000.0
924.818,3362690000.0
924.939,3361080000.0
925.06,3334260000.0
925.182,3276780000.0
925.189,3272050000.0
925.239,3236410000.0
925.339,3142380000.0
925.389,3082260000.0
925.439,3013270000.0
925.489,2935380000.0
925.539,2845570000.0
925.579,2766060000.0
925.659,2589630000.0
925.739,2389520000.0
925.819,2172850000.0
925.899,1954370000.0
925.935,1864350000.0
925.97,1784920000.0
926.005,1721910000.0
926.041,1678440000.0
926.067,1660650000.0
926.117,1654160000.0
926.165,1655860000.0
926.189,1656740000.0
926.214,1657640000.0
926.22,1657860000.0
926.226,1658080000.0
926.232,1658300000.0
926.238,1658520000.0
926.263,1659440000.0
926.287,1660310000.0
926.337,1662200000.0
926.385,1672320000.0
926.433,1718740000.0
926.481,1803760000.0
926.532,1928150000.0
926.582,2070410000.0
926.632,2218640000.0
926.732,2518540000.0
926.873,2913030000.0
926.943,3091470000.0
927.014,3256370000.0
927.085,3407360000.0
927.155,3545620000.0
927.226,3672720000.0
927.263,3734490000.0
927.338,3849860000.0
927.487,4048720000.0
927.636,4210440000.0
927.785,4345620000.0
927.875,4416820000.0
928.055,4537760000.0
928.235,4634270000.0
928.414,4708640000.0
928.487,4732420000.0
928.632,4768480000.0
928.777,4787550000.0
928.922,4786570000.0
929.097,4752690000.0
929.272,4672860000.0
929.359,4611100000.0
929.446,4531980000.0
929.533,4433570000.0
929.621,4314270000.0
929.706,4174250000.0
929.791,4007590000.0
929.877,3816170000.0
929.962,3600260000.0
930.047,3361070000.0
930.098,3210330000.0
930.199,2886720000.0
930.301,2549420000.0
930.402,2217450000.0
930.447,2084070000.0
930.491,1969850000.0
930.541,1878000000.0
930.589,1832580000.0
930.639,1826260000.0
930.687,1828130000.0
930.711,1829090000.0
930.736,1830080000.0
930.742,1830330000.0
930.748,1830560000.0
930.754,1830800000.0
930.76,1831040000.0
930.785,1832040000.0
930.809,1833000000.0
930.859,1835040000.0
930.907,1845310000.0
930.955,1895030000.0
931.003,1987480000.0
931.005,1992330000.0
931.055,2129040000.0
931.105,2290260000.0
931.155,2461680000.0
931.255,2819750000.0
931.355,3177370000.0
931.398,3330190000.0
931.484,3623390000.0
931.657,4170750000.0
931.723,4365110000.0
931.79,4546090000.0
931.923,4876450000.0
932.057,5165570000.0
932.19,5415440000.0
932.324,5635010000.0
932.457,5827980000.0
932.591,5999350000.0
932.724,6152000000.0
932.991,6410130000.0
933.033,6446730000.0
933.117,6516820000.0
933.286,6645780000.0
933.624,6866110000.0
933.962,7044100000.0
934.276,7174350000.0
934.59,7270060000.0
934.904,7324090000.0
935.209,7324390000.0
935.514,7252950000.0
935.564,7231470000.0
935.664,7178760000.0
935.864,7031820000.0
935.964,6931910000.0
936.064,6812580000.0
936.164,6673060000.0
936.264,6507420000.0
936.364,6315290000.0
936.464,6097350000.0
936.564,5848060000.0
936.664,5567090000.0
936.753,5289140000.0
936.842,4988090000.0
936.931,4662620000.0
937.021,4319700000.0
937.148,3811000000.0
937.275,3288680000.0
937.339,3029020000.0
937.403,2775250000.0
937.466,2536930000.0
937.53,2328960000.0
937.544,2290730000.0
937.594,2185630000.0
937.642,2133520000.0
937.692,2126590000.0
937.741,2128780000.0
937.766,2129920000.0
937.791,2131060000.0
937.797,2131340000.0
937.803,2131600000.0
937.809,2131880000.0
937.815,2132160000.0
937.84,2133300000.0
937.865,2134430000.0
937.915,2136770000.0
937.964,2148300000.0
938.013,2206950000.0
938.062,2316340000.0
938.111,2470010000.0
938.16,2651870000.0
938.209,2846980000.0
938.258,3052310000.0
938.356,3476550000.0
938.458,3924740000.0
938.662,4812660000.0
938.853,5596500000.0
938.949,5958410000.0
939.044,6296780000.0
939.235,6911250000.0
939.331,7185750000.0
939.427,7444610000.0
939.618,7906240000.0
939.809,8298540000.0
940.0,8637420000.0
940.191,8932060000.0
940.434,9257320000.0
940.677,9534150000.0
940.92,9777570000.0
941.405,10197000000.0
941.891,10540100000.0
942.015,10619300000.0
942.263,10770400000.0
942.758,11045400000.0
942.894,11115700000.0
943.166,11259800000.0
943.71,11504400000.0
943.773,11530600000.0
943.9,11581900000.0
944.154,11678200000.0
944.625,11831300000.0
945.052,11931600000.0
945.478,11987100000.0
945.905,11980300000.0
946.331,11882600000.0
946.705,11689800000.0
947.079,11357800000.0
947.266,11123600000.0
947.453,10826900000.0
947.64,10463700000.0
947.827,10026000000.0
948.014,9499620000.0
948.108,9202330000.0
948.201,8878690000.0
948.295,8536590000.0
948.388,8167190000.0
948.482,7776330000.0
948.575,7361790000.0
948.669,6923610000.0
948.68,6868790000.0
948.73,6624780000.0
948.83,6124310000.0
949.03,5087860000.0
949.08,4828790000.0
949.18,4310190000.0
949.28,3804170000.0
949.38,3327490000.0
949.43,3113610000.0
949.48,2932830000.0
949.53,2806810000.0
949.58,2742760000.0
949.63,2735790000.0
949.68,2738620000.0
949.705,2740040000.0
949.73,2741460000.0
949.737,2741860000.0
949.743,2742210000.0
949.749,2742550000.0
949.755,2742890000.0
949.781,2744370000.0
949.806,2745800000.0
949.856,2748680000.0
949.906,2761200000.0
949.956,2831280000.0
950.006,2964570000.0
950.056,3154870000.0
950.106,3378950000.0
950.156,3621060000.0
950.256,4141450000.0
950.356,4682250000.0
950.406,4960360000.0
950.506,5516890000.0
950.707,6636090000.0
950.806,7174840000.0
951.005,8200180000.0
951.203,9139170000.0
951.402,9992140000.0
951.601,10753600000.0
951.8,11431300000.0
951.998,12030500000.0
952.197,12562300000.0
952.396,13028600000.0
952.407,13053200000.0
952.457,13162200000.0
952.557,13371900000.0
952.757,13756400000.0
952.957,14101400000.0
953.157,14417400000.0
953.357,14707700000.0
953.557,14976200000.0
953.757,15225900000.0
953.957,15461100000.0
954.008,15518700000.0
954.11,15631200000.0
954.314,15846400000.0
954.721,16242700000.0
955.537,16926800000.0
955.609,16982900000.0
955.753,17093800000.0
956.042,17307000000.0
956.618,17712800000.0
957.211,18092300000.0
958.397,18818700000.0
958.812,19067000000.0
959.643,19558000000.0
960.413,20006300000.0
960.776,20230600000.0
961.14,20433700000.0
961.376,20565200000.0
961.611,20696200000.0
962.081,20959400000.0
963.021,21488900000.0
963.251,21618400000.0
963.71,21878400000.0
964.629,22401700000.0
964.89,22551100000.0
965.412,22849200000.0
966.456,23441100000.0
966.53,23482700000.0
966.678,23565800000.0
966.975,23730800000.0
967.567,24058400000.0
968.169,24380000000.0
969.372,24972200000.0
969.809,25164800000.0
970.683,25485500000.0
971.065,25564300000.0
971.448,25342500000.0
971.653,24893100000.0
971.858,24501600000.0
971.908,24411900000.0
972.008,24223000000.0
972.108,23858500000.0
972.208,23520500000.0
972.268,23331400000.0
972.37,23031700000.0
972.473,22753500000.0
972.499,22687200000.0
972.524,22625400000.0
972.531,22608200000.0
972.537,22593600000.0
972.543,22578900000.0
972.55,22562000000.0
972.575,22502100000.0
972.601,22441000000.0
972.653,22322300000.0
972.703,22276800000.0
972.803,22209000000.0
972.806,22206900000.0
972.856,22174000000.0
972.956,22109700000.0
973.156,21986400000.0
973.216,21951100000.0
973.336,21910600000.0
973.456,22057600000.0
973.576,22207400000.0
973.626,22270700000.0
973.726,22399100000.0
973.926,22662000000.0
974.326,23359800000.0
974.726,24153100000.0
975.265,25208500000.0
975.804,26127800000.0
976.344,26913000000.0
976.905,27645200000.0
978.028,29179400000.0
978.544,29808400000.0
979.576,30990800000.0
980.184,31719800000.0
981.399,32946700000.0
981.823,33285000000.0
982.67,33962300000.0
983.463,34587500000.0
985.048,35858800000.0
985.102,35902300000.0
985.209,35989500000.0
985.423,36163900000.0
985.851,36510500000.0
986.708,37214200000.0
986.742,37242500000.0
986.81,37298700000.0
986.947,37410900000.0
987.221,37636800000.0
987.767,38083300000.0
988.381,38607500000.0
989.608,39641200000.0
990.021,39988800000.0
990.847,40670500000.0
991.66,41365300000.0
993.287,42887200000.0
993.3,42900400000.0
993.35,42949600000.0
993.45,43047900000.0
993.65,43245500000.0
993.85,43444400000.0
994.05,43644700000.0
994.25,43846800000.0
994.45,44044800000.0
994.65,44240000000.0
994.85,44436600000.0
995.05,44632700000.0
995.25,44822500000.0
995.45,45013200000.0
995.65,45201000000.0
995.85,45390700000.0
996.05,45582400000.0
996.25,45774900000.0
996.45,45970800000.0
996.65,46175900000.0
997.05,46587300000.0
997.849,47452200000.0
999.448,49189800000.0
1000.0,49831900000.0
1001.103,50992100000.0
1001.912,51845100000.0
1003.53,53535000000.0
1003.824,53838300000.0
1004.412,54440500000.0
1005.553,55599500000.0
1007.282,57310900000.0
1009.011,58936400000.0
1010.74,60367300000.0
1012.469,61429100000.0
1014.198,61945500000.0
1014.249,61950400000.0
1014.349,61958700000.0
1014.549,61968600000.0
1014.749,61963000000.0
1014.949,61951900000.0
1015.149,61921100000.0
1015.349,61880400000.0
1015.549,61831700000.0
1015.749,61767100000.0
1015.928,61705200000.0
1016.286,61532300000.0
1017.002,61063200000.0
1017.657,60452900000.0
1018.968,58765400000.0
1019.386,58064200000.0
1020.223,56398000000.0
1021.115,54085400000.0
1021.561,52638400000.0
1022.007,50949000000.0
1022.426,48992300000.0
1022.844,46593600000.0
1023.262,43600800000.0
1023.681,39794400000.0
1023.89,37610500000.0
1024.099,34980700000.0
1024.309,32110200000.0
1024.518,29237000000.0
1024.574,28334300000.0
1024.686,26559500000.0
1024.911,22968900000.0
1025.006,21378500000.0
1025.196,18050900000.0
1025.291,16227600000.0
1025.386,14381700000.0
1025.438,13427600000.0
1025.49,12599200000.0
1025.541,11998700000.0
1025.546,11960300000.0
1025.596,11699400000.0
1025.646,11660000000.0
1025.654,11661300000.0
1025.681,11666700000.0
1025.708,11672200000.0
1025.715,11673600000.0
1025.72,11674700000.0
1025.722,11675100000.0
1025.729,11676500000.0
1025.736,11677900000.0
1025.763,11683400000.0
1025.79,11689000000.0
1025.844,11714300000.0
1025.871,11778500000.0
1025.898,11913400000.0
1025.925,12135900000.0
1025.952,12447200000.0
1025.979,12828300000.0
1026.005,13270800000.0
1026.056,14216400000.0
1026.106,15210100000.0
1026.156,16229700000.0
1026.206,17249000000.0
1026.256,18256700000.0
1026.306,19238800000.0
1026.356,20199900000.0
1026.406,21122200000.0
1026.438,21689200000.0
1026.501,22787100000.0
1026.628,25002000000.0
1026.87,29058500000.0
1027.112,32873700000.0
1027.355,36422800000.0
1027.597,39846000000.0
1027.839,42708800000.0
1028.082,45449100000.0
1028.324,47833900000.0
1028.566,50115400000.0
1028.6,50384400000.0
1028.668,50919600000.0
1028.803,51988200000.0
1029.073,54028500000.0
1029.344,55789900000.0
1029.614,57472300000.0
1030.155,60511700000.0
1030.329,61413700000.0
1030.676,63240600000.0
1031.37,66960100000.0
1032.058,70365400000.0
1032.745,73368300000.0
1033.433,76192300000.0
1033.787,77620300000.0
1034.495,80019800000.0
1035.203,82134500000.0
1035.516,83286300000.0
1036.142,85976000000.0
1036.694,88802700000.0
1037.246,92030300000.0
1038.35,97910500000.0
1038.975,100990000000.0
1039.6,103583000000.0
1040.225,105824000000.0
1040.704,107561000000.0
1041.662,111078000000.0
1042.433,113673000000.0
1043.975,118796000000.0
1044.162,119425000000.0
1044.536,120688000000.0
1045.284,123261000000.0
1045.892,125438000000.0
1047.108,129709000000.0
1047.621,131379000000.0
1048.647,134827000000.0
1048.81,135414000000.0
1049.135,136585000000.0
1049.786,138907000000.0
1050.0,139663000000.0
1050.427,141072000000.0
1051.282,143746000000.0
1052.991,149033000000.0
1055.0,155313000000.0
1059.019,167218000000.0
1060.0,171144000000.0
1060.981,175688000000.0
1062.944,186614000000.0
1064.907,197840000000.0
1065.0,198344000000.0
1065.186,199299000000.0
1065.557,201217000000.0
1066.299,205075000000.0
1067.783,212832000000.0
1068.892,217758000000.0
1070.0,221944000000.0
1072.217,230910000000.0
1075.0,241903000000.0
1077.783,254911000000.0
1078.892,263493000000.0
1080.0,273524000000.0
1081.538,288272000000.0
1083.077,302337000000.0
1086.155,328465000000.0
1086.538,331629000000.0
1087.304,337947000000.0
1088.835,350739000000.0
1090.0,360787000000.0
1092.33,380221000000.0
1095.0,404060000000.0
1097.67,430063000000.0
1100.0,452413000000.0
1104.661,501288000000.0
1105.0,505136000000.0
1105.679,512814000000.0
1107.036,527653000000.0
1109.751,558279000000.0
1110.0,561139000000.0
1110.498,567007000000.0
1111.494,578833000000.0
1113.486,603026000000.0
1115.0,621831000000.0
1118.027,658107000000.0
1120.0,681617000000.0
1123.945,722049000000.0
1125.0,730118000000.0
1127.109,740503000000.0
1129.219,744998000000.0
1130.0,744262000000.0
1131.154,742516000000.0
1132.308,737453000000.0
1133.462,729657000000.0
1134.616,719265000000.0
1136.154,701119000000.0
1137.692,679773000000.0
1140.0,642698000000.0
1142.308,605562000000.0
1145.0,566241000000.0
1146.346,548218000000.0
1147.692,533635000000.0
1149.039,522003000000.0
1150.0,513636000000.0
1151.923,500719000000.0
1153.846,490316000000.0
1155.769,481825000000.0
1159.614,469073000000.0
1161.537,464522000000.0
1163.46,461042000000.0
1165.769,457902000000.0
1170.387,454869000000.0
1175.005,454949000000.0
1179.624,458215000000.0
1181.538,461048000000.0
1185.367,470132000000.0
1185.628,470883000000.0
1186.151,472419000000.0
1187.195,475619000000.0
1189.285,482122000000.0
1189.718,483378000000.0
1190.583,485711000000.0
1191.767,488345000000.0
1193.816,491274000000.0
1195.866,491649000000.0
1197.915,489847000000.0
1199.964,486342000000.0
1202.014,481031000000.0
1204.063,471296000000.0
1205.087,462884000000.0
1206.112,452231000000.0
1206.113,452217000000.0
1206.163,451587000000.0
1206.213,450962000000.0
1206.263,450344000000.0
1206.313,449734000000.0
1206.363,449130000000.0
1206.413,448539000000.0
1206.463,447955000000.0
1206.513,447314000000.0
1206.563,446509000000.0
1206.614,445712000000.0
1206.664,444923000000.0
1206.714,444146000000.0
1206.764,443380000000.0
1206.814,442620000000.0
1206.864,441870000000.0
1206.914,441131000000.0
1206.964,440401000000.0
1207.014,439611000000.0
1207.064,438653000000.0
1207.114,437710000000.0
1207.164,436782000000.0
1207.214,435868000000.0
1207.264,434968000000.0
1207.314,434082000000.0
1207.364,433209000000.0
1207.414,432344000000.0
1207.464,431488000000.0
1207.514,430588000000.0
1207.564,429568000000.0
1207.615,428567000000.0
1207.665,427577000000.0
1207.715,426598000000.0
1207.765,425634000000.0
1207.815,424685000000.0
1207.865,423751000000.0
1207.915,422832000000.0
1207.965,421926000000.0
1208.015,420991000000.0
1208.065,419971000000.0
1208.115,418968000000.0
1208.162,418041000000.0
1208.256,416229000000.0
1208.444,412772000000.0
1208.82,404609000000.0
1209.572,385248000000.0
1210.211,368362000000.0
1210.85,350325000000.0
1211.489,329379000000.0
1212.261,306386000000.0
1213.033,284354000000.0
1213.671,269385000000.0
1214.31,255770000000.0
1214.566,249917000000.0
1214.822,242150000000.0
1214.95,235853000000.0
1215.078,227081000000.0
1215.206,214339000000.0
1215.334,197502000000.0
1215.385,190596000000.0
1215.435,184787000000.0
1215.463,182324000000.0
1215.491,180545000000.0
1215.519,179536000000.0
1215.575,179097000000.0
1215.591,179127000000.0
1215.623,179194000000.0
1215.655,179262000000.0
1215.663,179279000000.0
1215.67,179294000000.0
1215.679,179313000000.0
1215.687,179330000000.0
1215.719,179397000000.0
1215.751,179465000000.0
1215.815,180013000000.0
1215.847,181209000000.0
1215.879,183450000000.0
1215.929,188811000000.0
1215.979,195854000000.0
1216.007,200156000000.0
1216.063,209179000000.0
1216.174,226411000000.0
1216.285,241675000000.0
1216.397,255198000000.0
1216.52,268647000000.0
1216.643,280079000000.0
1216.767,290655000000.0
1217.014,311993000000.0
1217.032,313370000000.0
1217.082,317185000000.0
1217.132,321059000000.0
1217.182,325011000000.0
1217.232,328997000000.0
1217.282,333100000000.0
1217.332,337375000000.0
1217.382,341817000000.0
1217.432,346411000000.0
1217.482,351195000000.0
1217.532,355179000000.0
1217.583,358738000000.0
1217.633,362390000000.0
1217.683,366146000000.0
1217.733,370035000000.0
1217.783,374052000000.0
1217.833,378193000000.0
1217.883,382478000000.0
1217.933,386944000000.0
1217.983,391605000000.0
1218.033,395610000000.0
1218.083,399259000000.0
1218.133,402993000000.0
1218.183,406846000000.0
1218.233,410828000000.0
1218.283,414957000000.0
1218.333,419247000000.0
1218.383,423712000000.0
1218.433,428323000000.0
1218.483,433142000000.0
1218.533,436865000000.0
1218.583,439998000000.0
1218.634,443195000000.0
1218.684,446462000000.0
1218.734,449789000000.0
1218.784,453146000000.0
1218.834,456580000000.0
1218.884,460104000000.0
1218.934,463756000000.0
1218.984,467529000000.0
1219.034,471039000000.0
1219.081,474249000000.0
1219.175,480898000000.0
1219.364,495200000000.0
1219.741,521862000000.0
1220.118,545909000000.0
1220.495,564759000000.0
1221.131,597444000000.0
1221.767,624141000000.0
1222.404,640150000000.0
1222.792,654119000000.0
1223.18,669017000000.0
1223.956,695719000000.0
1224.593,713282000000.0
1225.229,727411000000.0
1225.865,738662000000.0
1226.501,747852000000.0
1227.279,757680000000.0
1228.834,777856000000.0
1229.328,784199000000.0
1230.316,797799000000.0
1231.378,812100000000.0
1233.427,840386000000.0
1235.476,867068000000.0
1237.526,891821000000.0
