Wavelength,Flux
900.0,7589650.0
903.442,8376810.0
904.998,8756580.0
906.554,9152060.0
908.11,9563810.0
909.667,9992710.0
910.703,10287800.0
911.74,10591000.0
911.84,10620700.0
912.0,10668400.0
912.31,10761200.0
912.779,10903100.0
913.717,11192000.0
914.335,11386500.0
915.329,11704900.0
915.824,11866600.0
915.892,11889000.0
916.028,11978800.0
916.164,12054200.0
916.3,12030000.0
916.429,12067100.0
916.558,12117400.0
916.686,12311700.0
916.815,12429500.0
916.944,12421200.0
917.181,12320600.0
917.24,12340800.0
917.3,12364700.0
917.359,12490800.0
917.418,12678700.0
917.448,12760200.0
917.507,12895900.0
917.626,13077200.0
917.745,13141500.0
917.804,13111400.0
917.863,13013300.0
917.923,12842000.0
917.982,12637700.0
918.041,12616500.0
918.101,12637200.0
918.129,12647100.0
918.186,12666900.0
918.243,12688900.0
918.3,12841300.0
918.357,13166700.0
918.413,13468200.0
918.47,13717900.0
918.527,13915000.0
918.641,14194900.0
918.755,14363000.0
918.869,14415900.0
918.925,14378100.0
918.982,14273500.0
919.004,14210500.0
919.054,14005100.0
919.104,13714400.0
919.154,13372400.0
919.204,13079500.0
919.254,13044800.0
919.351,13079600.0
919.448,13114500.0
919.497,13182400.0
919.545,13528400.0
919.594,13980500.0
919.642,14435000.0
919.691,14835000.0
919.739,15172000.0
919.788,15451200.0
919.836,15680700.0
919.933,16041300.0
920.03,16315400.0
920.127,16516700.0
920.224,16651600.0
920.321,16707700.0
920.419,16645400.0
920.516,16378600.0
920.56,16155400.0
920.61,15810900.0
920.66,15336400.0
920.71,14759300.0
920.76,14164500.0
920.81,13700900.0
920.86,13632400.0
920.91,13650900.0
920.96,13669600.0
920.963,13670700.0
921.013,13689500.0
921.113,13801500.0
921.163,14313500.0
921.213,15022800.0
921.313,16466100.0
921.413,17575200.0
921.513,18360500.0
921.563,18667000.0
921.613,18937500.0
921.713,19378900.0
921.813,19733500.0
922.013,20266700.0
922.117,20466100.0
922.221,20601800.0
922.325,20655400.0
922.416,20605500.0
922.506,20415400.0
922.551,20247800.0
922.596,20016400.0
922.646,19671400.0
922.696,19200800.0
922.746,18608900.0
922.796,17859300.0
922.846,16977800.0
922.895,16040500.0
922.943,15196800.0
922.992,14572200.0
923.042,14469500.0
923.089,14487700.0
923.114,14497600.0
923.138,14507000.0
923.144,14509400.0
923.15,14511800.0
923.156,14514200.0
923.162,14516500.0
923.187,14526400.0
923.211,14535900.0
923.261,14556400.0
923.308,14698100.0
923.358,15402400.0
923.405,16306200.0
923.455,17392400.0
923.505,18440900.0
923.555,19399400.0
923.605,20242500.0
923.655,20972400.0
923.705,21594700.0
923.794,22508000.0
923.883,23209500.0
923.972,23764400.0
924.061,24226400.0
924.183,24750300.0
924.427,25558700.0
924.436,25585300.0
924.486,25724100.0
924.586,25976800.0
924.688,26195900.0
924.892,26522100.0
924.939,26572900.0
925.033,26627600.0
925.189,26556800.0
925.345,26235700.0
925.423,25926200.0
925.501,25451100.0
925.579,24797200.0
925.657,23906300.0
925.696,23369700.0
925.734,22746300.0
925.773,22041500.0
925.812,21255600.0
925.851,20407800.0
925.929,18544100.0
925.97,17538500.0
926.011,16669500.0
926.053,15973800.0
926.067,15833400.0
926.117,15728600.0
926.165,15748800.0
926.189,15759000.0
926.214,15769600.0
926.22,15772200.0
926.226,15774800.0
926.232,15777300.0
926.238,15779900.0
926.263,15790500.0
926.287,15800800.0
926.337,15822500.0
926.385,15970000.0
926.435,16753100.0
926.482,17784500.0
926.532,19072200.0
926.582,20381500.0
926.682,22789300.0
926.732,23854200.0
926.782,24793500.0
926.873,26290000.0
926.964,27525600.0
927.055,28535800.0
927.146,29374300.0
927.237,30085900.0
927.263,30267700.0
927.315,30615000.0
927.418,31241800.0
927.624,32320200.0
927.83,33227300.0
927.875,33398500.0
927.966,33716200.0
928.147,34297400.0
928.487,35198000.0
928.827,35832300.0
929.097,36068600.0
929.232,36034500.0
929.367,35851500.0
929.502,35476200.0
929.637,34826900.0
929.706,34351700.0
929.844,33111100.0
929.913,32303700.0
929.982,31331100.0
930.04,30393300.0
930.098,29357100.0
930.156,28196800.0
930.214,26948900.0
930.273,25580000.0
930.331,24107400.0
930.389,22541000.0
930.447,20924900.0
930.491,19736500.0
930.535,18733400.0
930.578,17959300.0
930.589,17857500.0
930.639,17762400.0
930.687,17785000.0
930.711,17796400.0
930.736,17808300.0
930.742,17811200.0
930.748,17814000.0
930.754,17816900.0
930.76,17819800.0
930.785,17831700.0
930.809,17843100.0
930.859,17867200.0
930.907,18010000.0
930.957,18856000.0
931.005,20010400.0
931.055,21447300.0
931.105,22922200.0
931.205,25757900.0
931.302,28257900.0
931.398,30549400.0
931.495,32646900.0
931.591,34527200.0
931.688,36188000.0
931.784,37654300.0
931.79,37740100.0
931.84,38431200.0
931.94,39693700.0
932.14,41834600.0
932.34,43559200.0
932.54,44966300.0
932.74,46172900.0
932.94,47225000.0
933.033,47677900.0
933.219,48545900.0
933.591,50112000.0
933.934,51234700.0
934.276,52132300.0
934.961,53512600.0
935.237,53792200.0
935.514,53799200.0
935.791,53380800.0
936.067,52296200.0
936.205,51406200.0
936.344,50134800.0
936.482,48520100.0
936.62,46578700.0
936.753,44311300.0
936.886,41705900.0
937.018,38727300.0
937.148,35522800.0
937.278,32053000.0
937.342,30161200.0
937.407,28159700.0
937.537,23948300.0
937.544,23720800.0
937.594,22400400.0
937.642,21518700.0
937.692,21416700.0
937.741,21444300.0
937.766,21458400.0
937.791,21472500.0
937.797,21475900.0
937.803,21479300.0
937.809,21482700.0
937.815,21486100.0
937.84,21500200.0
937.865,21514300.0
937.915,21542800.0
937.964,21702300.0
938.014,22697300.0
938.062,24046700.0
938.112,25737400.0
938.162,27470500.0
938.262,30837300.0
938.36,33883600.0
938.458,36754000.0
938.654,42109400.0
938.752,44569400.0
938.85,46870900.0
938.853,46937800.0
938.903,48053400.0
939.003,50165500.0
939.203,53904500.0
939.303,55515600.0
939.403,57007000.0
939.503,58322100.0
939.703,60622800.0
939.903,62552800.0
940.103,64166300.0
940.303,65562200.0
940.434,66361300.0
940.696,67768000.0
941.22,70111100.0
941.744,72012900.0
942.015,72899500.0
942.556,74526200.0
942.894,75466100.0
943.57,77190700.0
943.773,77654800.0
944.18,78532600.0
944.625,79366100.0
945.478,80557500.0
945.905,80875100.0
946.331,80892600.0
946.705,80519900.0
947.079,79571700.0
947.453,77726000.0
947.827,74636700.0
948.014,72454700.0
948.201,69710200.0
948.388,66296000.0
948.575,62225400.0
948.68,59604700.0
948.785,56791900.0
948.89,53736900.0
948.995,50447600.0
949.08,47650100.0
949.165,44700600.0
949.25,41567500.0
949.335,38197700.0
949.42,34604600.0
949.48,32117200.0
949.53,30439300.0
949.58,29295100.0
949.63,29191700.0
949.68,29229000.0
949.705,29247800.0
949.73,29266400.0
949.737,29271700.0
949.743,29276200.0
949.749,29280700.0
949.755,29285200.0
949.781,29304700.0
949.806,29323400.0
949.856,29361000.0
949.906,29541000.0
949.956,30772000.0
950.006,32545400.0
950.056,34726100.0
950.106,36967400.0
950.206,41355600.0
950.306,45425900.0
950.406,49259400.0
950.456,51099500.0
950.556,54682800.0
950.756,61299000.0
950.806,62844200.0
950.906,65802300.0
951.106,71124500.0
951.307,75726500.0
951.507,79604400.0
951.707,82918800.0
951.907,85787300.0
952.107,88302500.0
952.407,91530200.0
952.707,94253700.0
953.006,96617400.0
953.606,100729000.0
954.008,103152000.0
954.813,107458000.0
955.609,111213000.0
957.202,118140000.0
957.211,118178000.0
957.261,118379000.0
957.361,118783000.0
957.561,119583000.0
957.761,120380000.0
957.961,121180000.0
958.161,121984000.0
958.361,122798000.0
958.561,123617000.0
958.761,124428000.0
958.812,124634000.0
958.914,125050000.0
959.118,125827000.0
959.526,127394000.0
960.341,130623000.0
960.413,130911000.0
960.557,131493000.0
960.776,132482000.0
961.14,133865000.0
961.376,134775000.0
961.611,135699000.0
962.081,137602000.0
963.021,141538000.0
963.251,142475000.0
963.71,144404000.0
964.629,148518000.0
964.89,149662000.0
965.412,151916000.0
966.456,156688000.0
966.53,157046000.0
966.678,157775000.0
966.975,159144000.0
967.567,161713000.0
968.169,164347000.0
969.372,169485000.0
969.809,171025000.0
970.683,174073000.0
971.065,175063000.0
971.448,173817000.0
971.653,170789000.0
971.858,168537000.0
971.908,168058000.0
972.008,167103000.0
972.208,163612000.0
972.268,162742000.0
972.37,161476000.0
972.473,160361000.0
972.499,160113000.0
972.524,159883000.0
972.531,159819000.0
972.537,159765000.0
972.543,159710000.0
972.55,159648000.0
972.575,159428000.0
972.601,159204000.0
972.653,158788000.0
972.703,158687000.0
972.803,158588000.0
972.806,158585000.0
972.856,158541000.0
972.956,158462000.0
973.156,158342000.0
973.216,158315000.0
973.336,158388000.0
973.576,160083000.0
973.626,160443000.0
973.726,161173000.0
973.926,162670000.0
974.326,166460000.0
975.126,175310000.0
975.265,177048000.0
975.544,180080000.0
976.101,186183000.0
976.905,193878000.0
977.709,202520000.0
978.544,212128000.0
980.184,230110000.0
981.823,246862000.0
982.643,253779000.0
983.463,260859000.0
985.102,275641000.0
986.742,290963000.0
988.381,306665000.0
990.021,323431000.0
991.66,338241000.0
992.479,347918000.0
993.299,359704000.0
993.3,359714000.0
993.35,360316000.0
993.45,361530000.0
993.65,364006000.0
993.85,366546000.0
994.05,369166000.0
994.25,371879000.0
994.45,374471000.0
994.65,377010000.0
994.85,379611000.0
995.05,382292000.0
995.25,384769000.0
995.45,387357000.0
995.65,389922000.0
995.85,392697000.0
996.05,395630000.0
996.25,398713000.0
996.45,401851000.0
996.65,404881000.0
997.05,410273000.0
997.849,422927000.0
999.448,452099000.0
1000.0,465498000.0
1000.276,469135000.0
1000.552,472911000.0
1001.103,480121000.0
1001.912,491230000.0
1002.721,504685000.0
1003.53,518851000.0
1003.824,522193000.0
1004.412,528915000.0
1005.553,542641000.0
1007.282,563197000.0
1008.146,569018000.0
1009.011,573197000.0
1010.74,578123000.0
1011.604,573491000.0
1012.469,567532000.0
1013.333,559592000.0
1014.198,549660000.0
1014.249,548929000.0
1014.349,547499000.0
1014.549,544903000.0
1014.749,542223000.0
1014.949,539603000.0
1015.149,536768000.0
1015.349,533949000.0
1015.549,531204000.0
1015.749,528455000.0
1015.928,526133000.0
1016.286,521321000.0
1017.002,512462000.0
1017.657,504833000.0
1018.968,492099000.0
1019.386,488369000.0
1020.223,481195000.0
1021.115,472502000.0
1021.979,461945000.0
1022.844,445722000.0
1023.276,432723000.0
1023.708,413797000.0
1023.925,401845000.0
1024.141,385002000.0
1024.357,365622000.0
1024.573,343639000.0
1024.624,337653000.0
1024.674,331686000.0
1024.724,325795000.0
1024.774,319691000.0
1024.824,313340000.0
1024.874,306858000.0
1024.924,300026000.0
1024.974,292987000.0
1025.006,288365000.0
1025.069,279119000.0
1025.132,269005000.0
1025.196,257998000.0
1025.259,246014000.0
1025.322,232705000.0
1025.38,219453000.0
1025.438,205215000.0
1025.492,192207000.0
1025.546,181350000.0
1025.596,175568000.0
1025.646,174221000.0
1025.654,174224000.0
1025.681,174314000.0
1025.708,174416000.0
1025.715,174442000.0
1025.72,174461000.0
1025.722,174469000.0
1025.729,174495000.0
1025.736,174521000.0
1025.763,174623000.0
1025.79,174725000.0
1025.844,175496000.0
1025.871,177164000.0
1025.898,180265000.0
1025.925,184752000.0
1025.952,190410000.0
1026.005,203661000.0
1026.056,216713000.0
1026.106,229305000.0
1026.156,241142000.0
1026.206,252256000.0
1026.256,262524000.0
1026.306,272211000.0
1026.356,281462000.0
1026.406,290081000.0
1026.438,295275000.0
1026.501,305262000.0
1026.628,324428000.0
1026.749,341382000.0
1026.87,357528000.0
1026.92,364056000.0
1026.97,370669000.0
1027.02,376812000.0
1027.07,382287000.0
1027.12,387742000.0
1027.17,393128000.0
1027.22,398550000.0
1027.27,403892000.0
1027.32,409133000.0
1027.37,414291000.0
1027.421,419538000.0
1027.471,424825000.0
1027.521,429557000.0
1027.571,433426000.0
1027.621,437226000.0
1027.671,440979000.0
1027.721,444674000.0
1027.771,448326000.0
1027.821,452003000.0
1027.871,455634000.0
1027.921,459259000.0
1027.971,462874000.0
1028.021,466201000.0
1028.071,469138000.0
1028.121,472038000.0
1028.171,474909000.0
1028.221,477761000.0
1028.271,480594000.0
1028.321,483466000.0
1028.371,486343000.0
1028.422,489214000.0
1028.472,492073000.0
1028.522,494702000.0
1028.572,497009000.0
1028.6,498291000.0
1028.657,500841000.0
1028.77,505945000.0
1028.996,516098000.0
1029.45,533391000.0
1029.903,549628000.0
1030.329,564189000.0
1031.182,595052000.0
1032.058,627980000.0
1033.787,692063000.0
1035.516,751845000.0
1035.948,772796000.0
1036.38,798257000.0
1036.813,831110000.0
1037.245,871265000.0
1037.296,876457000.0
1037.346,881720000.0
1037.396,887163000.0
1037.446,892792000.0
1037.496,898613000.0
1037.546,903341000.0
1037.596,908077000.0
1037.646,912927000.0
1037.696,917900000.0
1037.746,923030000.0
1037.797,928292000.0
1037.847,933688000.0
1037.897,939212000.0
1037.947,944879000.0
1037.997,950701000.0
1038.047,955930000.0
1038.097,961221000.0
1038.147,966636000.0
1038.197,972174000.0
1038.247,977841000.0
1038.297,983646000.0
1038.347,989587000.0
1038.397,995681000.0
1038.447,1001970000.0
1038.497,1008420000.0
1038.547,1014390000.0
1038.597,1020450000.0
1038.647,1026630000.0
1038.697,1032950000.0
1038.747,1039410000.0
1038.797,1046020000.0
1038.848,1052790000.0
1038.898,1059710000.0
1038.948,1066790000.0
1038.975,1070740000.0
1039.03,1077790000.0
1039.139,1090580000.0
1039.358,1117370000.0
1039.795,1167420000.0
1040.67,1270870000.0
1040.704,1275390000.0
1040.771,1284550000.0
1040.906,1303240000.0
1041.176,1341300000.0
1041.715,1418890000.0
1042.433,1519060000.0
1043.151,1625710000.0
1043.87,1755160000.0
1044.162,1816920000.0
1044.747,1938500000.0
1045.319,2077400000.0
1045.892,2246460000.0
1046.464,2444600000.0
1047.037,2657420000.0
1047.329,2755240000.0
1047.621,2843620000.0
1048.205,3038560000.0
1048.497,3152820000.0
1048.789,3298180000.0
1048.81,3308620000.0
1048.86,3335030000.0
1048.91,3361260000.0
1048.96,3388090000.0
1049.01,3415580000.0
1049.06,3444580000.0
1049.11,3474200000.0
1049.16,3504420000.0
1049.21,3535340000.0
1049.26,3567160000.0
1049.311,3598640000.0
1049.361,3632940000.0
1049.411,3668130000.0
1049.461,3704370000.0
1049.511,3741260000.0
1049.561,3770700000.0
1049.611,3798290000.0
1049.661,3825950000.0
1049.711,3853930000.0
1049.761,3882240000.0
1049.811,3910950000.0
1049.861,3939950000.0
1049.911,3969310000.0
1049.961,3999060000.0
1050.0,4022230000.0
1050.078,4059770000.0
1050.233,4134770000.0
1050.543,4286510000.0
1051.165,4557780000.0
1051.786,4816760000.0
1052.407,5023430000.0
1053.028,5229330000.0
1053.649,5401130000.0
1054.27,5529240000.0
1054.635,5628520000.0
1055.0,5752410000.0
1055.73,5959760000.0
1056.095,6012530000.0
1056.46,6010300000.0
1056.825,5948640000.0
1057.19,5851010000.0
1057.92,5668580000.0
1058.285,5648010000.0
1058.65,5675600000.0
1059.015,5757000000.0
1059.38,5921620000.0
1059.69,6102260000.0
1060.0,6315060000.0
1060.31,6587650000.0
1060.62,6900730000.0
1060.93,7276910000.0
1061.24,7741530000.0
1061.55,8287170000.0
1061.86,8978200000.0
1062.17,9804700000.0
1062.48,10802700000.0
1062.791,11997100000.0
1063.101,13398300000.0
1063.411,14984300000.0
1063.721,16665000000.0
1064.031,18512000000.0
1064.341,20249600000.0
1064.961,23740000000.0
1065.0,23970900000.0
1065.078,24345800000.0
1065.234,25120800000.0
1065.547,26743800000.0
1066.172,30005800000.0
1066.797,33641700000.0
1067.422,37329300000.0
1067.734,38724100000.0
1068.047,39851200000.0
1068.359,40181700000.0
1068.672,39971500000.0
1068.984,39329400000.0
1069.297,37998600000.0
1069.922,35068300000.0
1070.0,34703200000.0
1070.156,34004100000.0
1070.469,32671500000.0
1070.781,31624000000.0
1071.094,30738300000.0
1071.406,30088200000.0
1071.719,29593800000.0
1072.344,28808200000.0
1072.969,27929100000.0
1073.594,26503900000.0
1074.219,24620000000.0
1075.0,22179200000.0
1075.391,21165900000.0
1075.781,20404900000.0
1076.172,19920800000.0
1076.562,19728100000.0
1076.758,19816500000.0
1076.953,19904700000.0
1077.148,20182000000.0
1077.344,20525500000.0
1077.539,20927000000.0
1077.734,21547300000.0
1077.93,22194800000.0
1078.125,23029900000.0
1078.32,24006800000.0
1078.516,25064800000.0
1078.711,26399300000.0
1078.906,27849000000.0
1079.102,29508500000.0
1079.297,31396000000.0
1079.492,33465600000.0
1079.688,35814700000.0
1079.844,37886700000.0
1080.0,40155400000.0
1080.156,42571800000.0
1080.312,45227900000.0
1080.469,48145000000.0
1080.625,51190500000.0
1080.781,54488000000.0
1080.938,58113200000.0
1081.25,65860500000.0
1081.394,69883500000.0
1081.538,74149300000.0
1081.826,82967700000.0
1082.114,92842400000.0
1082.401,103421000000.0
1082.689,114539000000.0
1082.977,126763000000.0
1083.077,130834000000.0
1083.277,139191000000.0
1083.676,156870000000.0
1084.076,175020000000.0
1084.874,210509000000.0
1085.673,243952000000.0
1086.472,274741000000.0
1086.538,277178000000.0
1086.67,281881000000.0
1086.933,291628000000.0
1087.461,309468000000.0
1087.988,326108000000.0
1089.043,357064000000.0
1089.521,369793000000.0
1090.0,381175000000.0
1090.957,403183000000.0
1091.914,420352000000.0
1092.871,434652000000.0
1093.828,446424000000.0
1094.785,456300000000.0
1095.0,458333000000.0
1095.43,461003000000.0
1096.289,465492000000.0
1097.148,468239000000.0
1098.008,466319000000.0
1098.867,463691000000.0
1099.727,456112000000.0
1100.0,453390000000.0
1100.547,447808000000.0
1101.641,433584000000.0
1102.734,417387000000.0
1103.828,398518000000.0
1104.922,379309000000.0
1105.0,377964000000.0
1105.156,374401000000.0
1105.469,367375000000.0
1106.094,353700000000.0
1107.344,325762000000.0
1108.594,295135000000.0
1109.844,261741000000.0
1110.0,257545000000.0
1110.312,249386000000.0
1110.938,233966000000.0
1111.562,215479000000.0
1112.188,198284000000.0
1112.812,182690000000.0
1113.438,167739000000.0
1114.062,153902000000.0
1114.688,141420000000.0
1115.0,135635000000.0
1115.625,123524000000.0
1116.25,112648000000.0
1116.875,102899000000.0
1118.125,83392100000.0
1119.062,71272000000.0
1120.0,58812900000.0
1120.938,48998100000.0
1121.875,39059600000.0
1122.344,35024000000.0
1122.812,31537500000.0
1123.281,27967500000.0
1123.75,24673800000.0
1123.984,23248800000.0
1124.219,21949100000.0
1124.453,20762500000.0
1124.688,19672100000.0
1125.0,18357400000.0
1125.156,17576600000.0
1125.312,16852000000.0
1125.625,15554000000.0
1125.781,14972100000.0
1125.938,14431200000.0
1126.25,13460900000.0
1126.562,12614300000.0
1126.875,11873900000.0
1127.188,11122600000.0
1127.5,10426300000.0
1127.812,9839080000.0
1128.125,9341830000.0
1128.438,8917600000.0
1128.75,8549810000.0
1129.062,8215570000.0
1129.688,7590630000.0
1130.0,7347470000.0
1130.312,7142190000.0
1130.625,6964410000.0
1131.154,6695600000.0
1131.683,6452630000.0
1132.212,6270250000.0
1132.308,6242300000.0
1132.5,6190170000.0
1132.883,6097160000.0
1133.65,5914610000.0
1134.416,5785170000.0
1135.183,5683130000.0
1136.154,5568140000.0
1137.125,5494320000.0
1138.097,5424960000.0
1140.0,5339930000.0
1141.903,5301070000.0
1143.807,5297550000.0
1145.0,5311970000.0
1147.387,5356560000.0
1150.0,5438390000.0
1152.613,5539410000.0
1155.227,5651140000.0
1157.84,5765630000.0
1160.453,5885690000.0
1163.066,6007290000.0
1165.68,6121270000.0
1165.769,6124980000.0
1165.948,6132590000.0
1166.305,6148440000.0
1167.02,6181910000.0
1168.45,6239270000.0
1171.309,6365310000.0
1174.168,6491260000.0
1177.028,6624110000.0
1179.887,6767490000.0
1181.538,6861220000.0
1184.839,7082350000.0
1185.628,7140690000.0
1187.205,7261250000.0
1189.718,7458030000.0
1191.767,7603060000.0
1193.816,7719580000.0
1195.866,7799900000.0
1197.915,7853200000.0
1199.964,7883830000.0
1202.014,7893700000.0
1204.063,7855170000.0
1205.087,7795750000.0
1206.112,7714520000.0
1206.113,7714410000.0
1206.163,7709370000.0
1206.213,7704460000.0
1206.263,7699670000.0
1206.313,7694980000.0
1206.363,7690390000.0
1206.413,7685900000.0
1206.463,7681450000.0
1206.513,7676300000.0
1206.563,7669160000.0
1206.614,7662200000.0
1206.664,7655390000.0
1206.714,7648570000.0
1206.764,7641900000.0
1206.814,7635380000.0
1206.864,7629010000.0
1206.914,7622920000.0
1206.964,7617090000.0
1207.014,7610560000.0
1207.064,7602000000.0
1207.114,7593620000.0
1207.164,7585430000.0
1207.214,7577260000.0
1207.264,7569270000.0
1207.314,7561390000.0
1207.364,7553690000.0
1207.414,7546170000.0
1207.464,7538830000.0
1207.514,7531000000.0
1207.564,7521770000.0
1207.615,7512760000.0
