Wavelength,Flux
900.0,2906770.0
903.442,3220000.0
904.998,3371520.0
906.554,3529570.0
908.11,3694390.0
909.667,3866360.0
910.703,3984820.0
911.74,4106730.0
911.84,4118660.0
912.0,4137820.0
912.31,4175180.0
912.779,4232290.0
913.717,4348650.0
914.335,4426920.0
915.329,4555520.0
915.824,4620820.0
915.892,4629870.0
916.028,4648040.0
916.3,4684510.0
916.429,4701810.0
916.686,4736930.0
917.181,4804300.0
917.448,4842810.0
917.982,4916870.0
918.129,4936400.0
918.423,4984590.0
919.004,5073490.0
919.351,5111590.0
919.698,5182090.0
920.045,5241930.0
920.56,5323690.0
920.963,5351430.0
921.165,5403580.0
921.366,5459050.0
921.568,5498720.0
921.769,5536060.0
921.971,5572300.0
922.117,5598310.0
922.41,5649280.0
922.506,5665370.0
922.699,5694260.0
922.895,5702420.0
922.992,5683680.0
923.089,5683490.0
923.114,5687500.0
923.138,5691360.0
923.144,5692320.0
923.15,5693300.0
923.156,5694250.0
923.162,5695220.0
923.187,5699240.0
923.211,5703110.0
923.261,5711390.0
923.308,5735140.0
923.402,5788430.0
923.405,5789810.0
923.455,5812180.0
923.555,5844290.0
923.755,5894400.0
923.794,5902780.0
923.872,5919050.0
924.028,5951150.0
924.183,5982560.0
924.436,6033080.0
924.688,6082710.0
924.939,6131880.0
925.189,6180260.0
925.579,6249440.0
925.774,6270220.0
925.97,6245870.0
926.067,6203230.0
926.165,6197420.0
926.189,6201600.0
926.214,6205940.0
926.22,6206980.0
926.226,6208040.0
926.232,6209080.0
926.238,6210120.0
926.263,6214470.0
926.287,6218660.0
926.337,6227550.0
926.385,6259170.0
926.481,6338850.0
926.532,6374590.0
926.632,6429450.0
926.832,6501840.0
926.873,6514120.0
926.955,6537030.0
927.119,6578780.0
927.263,6613240.0
927.551,6679860.0
927.875,6753210.0
928.487,6893790.0
929.097,7034740.0
929.706,7168310.0
930.098,7224370.0
930.295,7209000.0
930.491,7111330.0
930.589,7039760.0
930.687,7030510.0
930.711,7035190.0
930.736,7040080.0
930.742,7041240.0
930.748,7042410.0
930.754,7043590.0
930.76,7044760.0
930.785,7049640.0
930.809,7054350.0
930.859,7064240.0
930.907,7102280.0
931.003,7213280.0
931.005,7215790.0
931.055,7273640.0
931.155,7372590.0
931.355,7510110.0
931.398,7532180.0
931.484,7570520.0
931.656,7634470.0
931.79,7678360.0
932.058,7758250.0
932.593,7906590.0
933.033,8026180.0
933.914,8268520.0
934.276,8370830.0
935.001,8577100.0
935.514,8722970.0
936.54,8992130.0
936.753,9028460.0
937.148,9009570.0
937.346,8892470.0
937.543,8656900.0
937.594,8598090.0
937.642,8549740.0
937.738,8535760.0
937.741,8536440.0
937.766,8542260.0
937.791,8548100.0
937.797,8549480.0
937.803,8550880.0
937.809,8552300.0
937.815,8553690.0
937.84,8559530.0
937.865,8565370.0
937.915,8577150.0
937.964,8625260.0
938.062,8779960.0
938.16,8957670.0
938.356,9265550.0
938.458,9374970.0
938.56,9468440.0
938.764,9610620.0
938.853,9658430.0
939.031,9741830.0
939.388,9884400.0
940.102,10136500.0
940.434,10249000.0
941.097,10472400.0
942.015,10782500.0
942.894,11083600.0
943.773,11391100.0
944.625,11694600.0
945.478,11997200.0
947.079,12569800.0
947.88,12830700.0
948.68,12931800.0
948.88,12856400.0
949.08,12671500.0
949.28,12348100.0
949.48,11932900.0
949.58,11786400.0
949.63,11755300.0
949.68,11770900.0
949.705,11778700.0
949.73,11786500.0
949.737,11788700.0
949.743,11790600.0
949.749,11792500.0
949.755,11794300.0
949.781,11802500.0
949.806,11810300.0
949.856,11826100.0
949.906,11888800.0
950.006,12100200.0
950.056,12229000.0
950.156,12511100.0
950.356,13030300.0
950.406,13134100.0
950.506,13322400.0
950.706,13612400.0
950.806,13723200.0
951.005,13899100.0
951.404,14165100.0
951.803,14386600.0
952.407,14679500.0
953.614,15220100.0
954.008,15393400.0
954.795,15740100.0
955.609,16104200.0
957.211,16843700.0
958.812,17608400.0
960.413,18398000.0
960.776,18581300.0
961.14,18766900.0
961.376,18888300.0
961.611,19010100.0
962.081,19256000.0
963.021,19756600.0
963.251,19880900.0
963.71,20132200.0
964.629,20636700.0
964.89,20781900.0
965.412,21075800.0
966.456,21676800.0
966.53,21720200.0
966.678,21807300.0
966.975,21982500.0
967.567,22336100.0
968.169,22700200.0
969.372,23448100.0
969.809,23726000.0
970.683,24288900.0
971.448,24782600.0
971.858,25041600.0
972.268,25293600.0
972.37,25355200.0
972.473,25417400.0
972.499,25433100.0
972.524,25448000.0
972.531,25452100.0
972.537,25455600.0
972.543,25459200.0
972.55,25463200.0
972.575,25477800.0
972.601,25492900.0
972.653,25523200.0
972.703,25554500.0
972.803,25618100.0
972.806,25620000.0
972.856,25651900.0
972.956,25715500.0
973.156,25843400.0
973.216,25881900.0
973.336,25960200.0
973.576,26133900.0
973.626,26170200.0
973.726,26242800.0
973.926,26388800.0
974.326,26689000.0
975.126,27295700.0
975.265,27403100.0
975.544,27616300.0
976.101,28047000.0
976.905,28674100.0
978.512,29960000.0
978.544,29985600.0
978.608,30036600.0
978.735,30139100.0
978.989,30344700.0
979.498,30761100.0
980.184,31332600.0
981.556,32507300.0
981.823,32740900.0
982.357,33214100.0
983.424,34184800.0
983.463,34220400.0
983.54,34291900.0
983.694,34435300.0
984.003,34724100.0
984.62,35310800.0
985.102,35776200.0
986.065,36728800.0
986.742,37415300.0
988.095,38810100.0
988.381,39109900.0
988.953,39717500.0
990.021,40882100.0
991.66,42719200.0
993.3,44649800.0
996.58,48738700.0
996.65,48830400.0
996.79,49014600.0
997.07,49384200.0
997.63,50118400.0
998.75,51619300.0
1000.0,53357000.0
1001.912,56094300.0
1003.824,58957900.0
1005.553,61649300.0
1007.282,64439400.0
1009.011,67355400.0
1010.74,70343000.0
1012.469,73468600.0
1014.199,76647300.0
1015.928,79843000.0
1017.657,82938600.0
1019.386,86020400.0
1021.115,88243700.0
1021.979,88624700.0
1022.844,88018600.0
1023.708,86067800.0
1024.573,83512500.0
1024.624,83330700.0
1024.674,83144200.0
1024.724,82946900.0
1024.774,82734200.0
1024.824,82521400.0
1024.874,82286600.0
1024.924,82017900.0
1024.974,81705300.0
1025.006,81504600.0
1025.069,81059300.0
1025.196,80002000.0
1025.317,78586700.0
1025.438,76894100.0
1025.546,75622400.0
1025.654,75050300.0
1025.681,75092500.0
1025.708,75137800.0
1025.715,75149600.0
1025.72,75157900.0
1025.722,75161500.0
1025.729,75173100.0
1025.736,75184900.0
1025.763,75230400.0
1025.79,75276000.0
1025.844,75478400.0
1025.898,76037600.0
1026.005,77631500.0
1026.056,78511200.0
1026.106,79394500.0
1026.156,80280600.0
1026.206,81088400.0
1026.256,81835100.0
1026.306,82510700.0
1026.356,83123600.0
1026.406,83696200.0
1026.438,84045400.0
1026.501,84683300.0
1026.628,85857800.0
1026.87,87762700.0
1027.355,91155600.0
1028.324,97965900.0
1028.6,99792300.0
1029.152,103023000.0
1029.704,105820000.0
1030.257,108371000.0
1030.329,108689000.0
1030.474,109319000.0
1030.763,110571000.0
1031.341,113009000.0
1032.058,115750000.0
1033.493,120535000.0
1033.787,121483000.0
1034.376,123331000.0
1035.516,126940000.0
1037.246,132834000.0
1038.975,138787000.0
1040.704,144553000.0
1042.433,150529000.0
1044.162,156566000.0
1045.892,162860000.0
1047.621,169432000.0
1048.81,174072000.0
1050.0,178753000.0
1052.38,188529000.0
1055.0,199950000.0
1057.62,211769000.0
1060.0,223217000.0
1064.76,247728000.0
1065.0,249028000.0
1065.48,251653000.0
1066.441,257004000.0
1068.363,268039000.0
1070.0,277589000.0
1073.273,297716000.0
1075.0,309018000.0
1078.453,332510000.0
1080.0,343583000.0
1081.538,355030000.0
1083.077,366935000.0
1086.155,391416000.0
1086.538,394533000.0
1087.304,400858000.0
1088.835,413868000.0
1090.0,424106000.0
1092.33,445513000.0
1095.0,470579000.0
1097.67,496979000.0
1100.0,521441000.0
1104.661,572669000.0
1105.0,576442000.0
1105.679,584085000.0
1107.036,599768000.0
1109.751,632406000.0
1110.0,635507000.0
1110.498,641751000.0
1111.494,654344000.0
1113.486,678878000.0
1115.0,697660000.0
1118.027,736256000.0
1120.0,761609000.0
1123.945,810054000.0
1125.0,822325000.0
1127.109,845689000.0
1130.0,876223000.0
1131.154,888438000.0
1132.308,900018000.0
1134.616,923236000.0
1136.154,938565000.0
1139.23,971020000.0
1140.0,979121000.0
1141.539,996408000.0
1144.617,1032560000.0
1145.0,1037360000.0
1145.766,1046300000.0
1147.297,1065360000.0
1150.0,1100010000.0
1152.703,1136020000.0
1155.406,1172550000.0
1158.109,1209460000.0
1160.812,1248130000.0
1163.516,1287980000.0
1165.769,1323380000.0
1170.276,1402230000.0
1174.783,1492080000.0
1179.29,1590700000.0
1181.538,1643580000.0
1185.628,1746760000.0
1189.718,1857720000.0
1191.767,1914680000.0
1193.816,1971420000.0
1195.866,2027450000.0
1197.915,2083420000.0
1199.964,2139720000.0
1202.014,2196380000.0
1204.063,2252580000.0
1206.113,2304860000.0
1208.162,2350010000.0
1210.211,2391930000.0
1212.261,2438460000.0
1214.31,2498510000.0
1214.822,2516580000.0
1215.335,2534050000.0
1215.463,2535820000.0
1215.591,2536070000.0
1215.623,2537310000.0
1215.655,2538540000.0
1215.663,2538850000.0
1215.67,2539130000.0
1215.679,2539480000.0
1215.687,2539790000.0
1215.719,2541030000.0
1215.751,2542290000.0
1215.815,2546670000.0
1215.879,2553020000.0
1216.007,2563490000.0
1216.263,2579620000.0
1216.52,2596380000.0
1217.032,2629810000.0
1218.056,2708700000.0
1219.081,2798120000.0
1221.131,2970670000.0
1222.156,3039650000.0
1223.18,3110220000.0
1225.229,3243140000.0
1227.279,3352880000.0
1229.328,3463330000.0
1231.378,3579320000.0
1233.427,3697120000.0
1235.476,3816330000.0
1237.526,3937380000.0
1239.575,4059680000.0
1241.625,4184810000.0
1245.725,4446390000.0
1249.825,4723050000.0
1250.812,4790740000.0
1252.786,4931510000.0
1256.733,5222160000.0
1260.0,5477910000.0
1263.267,5750280000.0
1265.0,5898100000.0
1268.466,6197680000.0
1270.0,6337160000.0
1273.068,6623350000.0
1275.0,6806630000.0
1278.863,7199430000.0
1280.0,7317310000.0
1282.273,7555060000.0
1285.0,7839870000.0
1287.727,8136800000.0
1290.0,8392750000.0
1294.547,8934610000.0
1295.0,8990960000.0
1295.906,9104680000.0
1297.719,9334220000.0
1300.0,9626930000.0
1305.0,10281800000.0
1310.0,10974900000.0
1315.0,11709800000.0
1320.0,12487900000.0
1325.0,13312300000.0
1330.0,14186900000.0
1335.0,15110700000.0
1340.0,16080700000.0
1345.0,17099300000.0
1350.0,18174300000.0
1355.0,19312500000.0
1360.0,20505300000.0
1365.0,21761600000.0
1370.0,23087300000.0
1374.231,24257100000.0
1378.462,25475100000.0
1379.231,25702200000.0
1380.0,25931100000.0
1381.538,26394400000.0
1384.614,27342500000.0
1385.0,27463400000.0
1385.771,27706500000.0
1387.314,28198000000.0
1390.0,29071000000.0
1395.0,30758000000.0
1400.0,32528200000.0
1405.0,34386700000.0
1410.0,36339700000.0
1415.0,38385400000.0
1420.0,40522500000.0
1425.0,42759700000.0
1430.0,45101800000.0
1435.0,47542200000.0
1440.0,50078300000.0
1445.0,52719800000.0
1450.0,55474800000.0
1455.0,58346000000.0
1460.0,61341900000.0
1465.0,64465900000.0
1470.0,67745400000.0
1473.462,70108900000.0
1476.923,72549600000.0
1478.462,73661400000.0
1480.0,74789700000.0
1483.076,77098200000.0
1485.0,78577800000.0
1488.848,81615000000.0
1490.0,82542800000.0
1492.304,84421600000.0
1495.0,86654300000.0
1500.0,90885000000.0
1505.0,95253600000.0
1510.0,99820400000.0
1515.0,104632000000.0
1520.0,109662000000.0
1525.0,114803000000.0
1530.0,119938000000.0
1535.0,125062000000.0
1540.0,130298000000.0
1545.0,135793000000.0
1550.0,141620000000.0
1555.0,147785000000.0
1560.0,154219000000.0
1565.0,160811000000.0
1570.0,167482000000.0
1572.692,171106000000.0
1575.385,174764000000.0
1577.692,177940000000.0
1580.0,181169000000.0
1584.616,187818000000.0
1585.0,188386000000.0
1585.768,189527000000.0
1587.304,191836000000.0
1590.0,195984000000.0
1595.0,204033000000.0
1600.0,212585000000.0
1605.0,221684000000.0
1610.0,231376000000.0
1615.0,241711000000.0
1620.0,252706000000.0
1625.0,264393000000.0
1630.0,276810000000.0
1635.0,289955000000.0
1640.0,303833000000.0
1645.0,318408000000.0
1650.0,333654000000.0
1655.0,349563000000.0
1660.0,366322000000.0
1665.0,384014000000.0
1670.0,402652000000.0
1671.923,410080000000.0
1673.846,417734000000.0
1676.923,430435000000.0
1680.0,443857000000.0
1685.0,467732000000.0
1690.0,495074000000.0
1692.5,510875000000.0
1695.0,528800000000.0
1697.5,549097000000.0
1700.0,572094000000.0
1702.5,598225000000.0
1705.0,629670000000.0
1707.5,666342000000.0
1710.0,710094000000.0
1712.5,757668000000.0
1715.0,819144000000.0
1716.25,851982000000.0
1717.5,885941000000.0
1718.75,926126000000.0
1720.0,971499000000.0
1722.5,1063650000000.0
1723.75,1115810000000.0
1725.0,1174390000000.0
1727.5,1298840000000.0
1728.75,1369640000000.0
1730.0,1449080000000.0
1732.5,1611970000000.0
1733.75,1705990000000.0
1735.0,1810980000000.0
1737.5,2022070000000.0
1738.75,2139820000000.0
1740.0,2270960000000.0
1742.5,2536680000000.0
1743.75,2686450000000.0
1745.0,2851870000000.0
1747.5,3180870000000.0
1748.75,3362200000000.0
1750.0,3562020000000.0
1752.5,3963440000000.0
1755.0,4421900000000.0
1757.5,4880850000000.0
1759.327,5246370000000.0
1761.154,5628810000000.0
1764.808,6416720000000.0
1768.462,7244710000000.0
1772.116,8122920000000.0
1772.308,8168200000000.0
1772.808,8287910000000.0
1773.808,8534720000000.0
1775.808,9047370000000.0
1779.808,10039500000000.0
1787.808,12048000000000.0
1803.808,15931100000000.0
1811.808,17740800000000.0
1819.808,19459600000000.0
1821.539,19818100000000.0
1825.001,20530100000000.0
1831.925,21906700000000.0
1845.772,24557400000000.0
1859.62,27112300000000.0
1870.769,29146800000000.0
1881.918,31175300000000.0
1893.067,33218700000000.0
1904.216,35282000000000.0
1915.365,37373300000000.0
1920.0,38250300000000.0
1929.27,40020800000000.0
1947.809,43636700000000.0
1966.348,47341900000000.0
1969.231,47925700000000.0
1974.998,49098800000000.0
1986.531,51471000000000.0
1998.064,53869200000000.0
2009.597,56273400000000.0
2018.462,58162700000000.0
2036.192,61967800000000.0
2053.921,65878200000000.0
2067.692,68997600000000.0
2081.462,72185600000000.0
2095.233,75428900000000.0
2109.003,78718200000000.0
2116.923,80633400000000.0
2132.762,84441900000000.0
2148.602,88242900000000.0
2164.441,92008900000000.0
2166.154,92405400000000.0
2169.58,93198800000000.0
2176.431,94795400000000.0
2190.135,97915900000000.0
2203.838,101011000000000.0
2215.385,103594000000000.0
2226.932,106190000000000.0
2238.48,108808000000000.0
2250.027,111479000000000.0
2261.574,114185000000000.0
2264.615,114914000000000.0
2270.696,116374000000000.0
2282.858,119332000000000.0
2295.02,122387000000000.0
2307.182,125545000000000.0
2313.846,127321000000000.0
2327.173,130983000000000.0
2340.5,134779000000000.0
2353.827,138776000000000.0
2363.077,141596000000000.0
2381.576,147368000000000.0
2400.075,153186000000000.0
2412.307,156956000000000.0
2424.539,160686000000000.0
2436.771,164318000000000.0
2449.003,167834000000000.0
2461.235,171296000000000.0
2461.538,171378000000000.0
2462.145,171541000000000.0
2463.359,171867000000000.0
2465.787,172520000000000.0
2470.642,173828000000000.0
2480.353,176449000000000.0
2499.775,181465000000000.0
2510.769,184212000000000.0
2521.763,186935000000000.0
2532.757,189592000000000.0
2543.751,192232000000000.0
2554.746,194832000000000.0
2560.0,196074000000000.0
2570.509,198511000000000.0
2581.018,200941000000000.0
2591.526,203343000000000.0
2602.035,205738000000000.0
2612.544,208112000000000.0
2623.053,210477000000000.0
2633.562,212826000000000.0
2644.07,215165000000000.0
2654.579,217491000000000.0
2658.461,218349000000000.0
2666.225,220046000000000.0
2681.752,223428000000000.0
2697.279,226826000000000.0
2712.807,230154000000000.0
2728.334,233469000000000.0
2743.861,236741000000000.0
2756.923,239475000000000.0
2769.985,242176000000000.0
2783.047,244860000000000.0
2796.108,247526000000000.0
2809.17,250173000000000.0
2822.232,252802000000000.0
2835.294,255412000000000.0
2848.355,258002000000000.0
2855.385,259387000000000.0
2869.444,262125000000000.0
2883.503,264838000000000.0
2897.562,267526000000000.0
2911.621,270190000000000.0
2925.68,272827000000000.0
2939.74,275439000000000.0
2945.1,276428000000000.0
2953.846,278033000000000.0
2971.338,281190000000000.0
2988.829,284304000000000.0
3006.321,287376000000000.0
3023.813,290402000000000.0
3041.304,293385000000000.0
3052.308,295239000000000.0
3063.312,297066000000000.0
3074.315,298875000000000.0
3085.319,300666000000000.0
3096.323,302439000000000.0
3107.326,304193000000000.0
3118.33,305929000000000.0
3129.334,307646000000000.0
3140.337,309345000000000.0
3150.769,310939000000000.0
3161.201,312513000000000.0
3171.632,314071000000000.0
3182.064,315613000000000.0
3187.7,316438000000000.0
3198.972,318074000000000.0
3210.244,319691000000000.0
3221.516,321287000000000.0
3232.788,322864000000000.0
3244.06,324421000000000.0
3249.231,325129000000000.0
3259.573,326531000000000.0
3269.916,327915000000000.0
3280.258,329283000000000.0
3290.6,330635000000000.0
3300.942,331969000000000.0
3311.285,333286000000000.0
3321.627,334587000000000.0
3331.969,335871000000000.0
3342.312,337138000000000.0
3347.692,337791000000000.0
3358.453,339082000000000.0
3369.213,340355000000000.0
3379.974,341610000000000.0
3390.735,342846000000000.0
3401.496,344065000000000.0
3412.256,345266000000000.0
3423.017,346448000000000.0
3433.778,347613000000000.0
3444.539,348759000000000.0
3446.154,348930000000000.0
3449.385,349268000000000.0
3455.847,349941000000000.0
3468.771,351267000000000.0
3481.695,352567000000000.0
3494.618,353842000000000.0
3507.542,355091000000000.0
3520.466,356315000000000.0
3533.39,357512000000000.0
3544.615,358532000000000.0
3555.84,359528000000000.0
3567.065,360505000000000.0
3578.29,361463000000000.0
3589.515,362403000000000.0
3595.868,362926000000000.0
3608.573,363952000000000.0
3621.278,364955000000000.0
3633.983,365933000000000.0
3646.5,366875000000000.0
3647.0,366912000000000.0
3647.12,366921000000000.0
3647.22,366891000000000.0
3647.42,366907000000000.0
3647.819,366938000000000.0
3648.0,366952000000000.0
3648.362,366980000000000.0
3649.085,367036000000000.0
3650.533,367149000000000.0
3653.427,367372000000000.0
3659.216,367816000000000.0
3665.005,368254000000000.0
3668.675,368529000000000.0
3676.014,369074000000000.0
3682.807,369572000000000.0
3686.832,369861000000000.0
3690.13,370101000000000.0
3691.554,370197000000000.0
3694.402,370407000000000.0
3696.486,370554000000000.0
3697.152,370590000000000.0
3698.484,370695000000000.0
3701.148,370883000000000.0
3702.843,371002000000000.0
3703.853,371052000000000.0
3705.0,371153000000000.0
3707.294,371312000000000.0
3709.2,371444000000000.0
3711.971,371596000000000.0
3715.556,371880000000000.0
3721.913,372235000000000.0
3721.938,372236000000000.0
3721.988,372242000000000.0
3722.038,372255000000000.0
3722.088,372269000000000.0
3722.138,372283000000000.0
3722.188,372295000000000.0
3722.238,372306000000000.0
3722.288,372315000000000.0
3722.338,372323000000000.0
3722.388,372330000000000.0
3722.438,372335000000000.0
3722.489,372341000000000.0
3722.539,372346000000000.0
3722.589,372351000000000.0
3722.639,372355000000000.0
3722.689,372359000000000.0
3722.739,372363000000000.0
3722.789,372367000000000.0
3722.839,372371000000000.0
3722.889,372375000000000.0
3722.939,372378000000000.0
3722.989,372382000000000.0
3723.039,372386000000000.0
3723.089,372389000000000.0
3723.139,372392000000000.0
3723.189,372396000000000.0
3723.239,372399000000000.0
3723.289,372403000000000.0
3723.339,372407000000000.0
3723.389,372410000000000.0
3723.439,372413000000000.0
3723.49,372416000000000.0
3723.54,372420000000000.0
3723.59,372423000000000.0
3723.64,372427000000000.0
3723.69,372430000000000.0
3723.74,372433000000000.0
3723.79,372437000000000.0
3723.84,372440000000000.0
3723.89,372444000000000.0
3723.94,372447000000000.0
3723.99,372451000000000.0
3724.04,372454000000000.0
3724.09,372457000000000.0
3724.14,372461000000000.0
3724.19,372464000000000.0
3724.24,372468000000000.0
3724.29,372471000000000.0
3724.34,372474000000000.0
3724.39,372478000000000.0
3724.44,372481000000000.0
3724.49,372484000000000.0
3724.541,372488000000000.0
3724.591,372491000000000.0
3724.641,372494000000000.0
3724.691,372497000000000.0
3724.741,372501000000000.0
3724.791,372504000000000.0
3724.841,372508000000000.0
3724.891,372511000000000.0
3724.941,372514000000000.0
3724.991,372518000000000.0
3725.041,372521000000000.0
3725.091,372524000000000.0
3725.141,372528000000000.0
3725.191,372531000000000.0
3725.241,372534000000000.0
3725.291,372538000000000.0
3725.341,372541000000000.0
3725.391,372545000000000.0
