Wavelength,Flux
900.0,956986.0
903.442,1064610.0
904.998,1116820.0
906.554,1171400.0
908.11,1228420.0
909.667,1288020.0
910.703,1329150.0
911.74,1371520.0
911.84,1375680.0
912.0,1382340.0
912.31,1395340.0
912.779,1415220.0
913.717,1455770.0
914.335,1483070.0
915.329,1527960.0
915.824,1550780.0
915.892,1553940.0
916.028,1560290.0
916.3,1573040.0
916.429,1579100.0
916.686,1591320.0
917.181,1614960.0
917.448,1628030.0
917.982,1654080.0
918.129,1661240.0
918.423,1676510.0
919.004,1706270.0
919.351,1722690.0
920.045,1761320.0
920.56,1788870.0
920.963,1806950.0
921.769,1856730.0
922.117,1876820.0
922.506,1899120.0
922.895,1918390.0
922.992,1919940.0
923.089,1923880.0
923.114,1925300.0
923.138,1926660.0
923.144,1927000.0
923.15,1927340.0
923.156,1927670.0
923.162,1928020.0
923.187,1929440.0
923.211,1930800.0
923.261,1933650.0
923.308,1937920.0
923.402,1947860.0
923.405,1948150.0
923.455,1952600.0
923.555,1960530.0
923.755,1974740.0
923.794,1977360.0
923.872,1982550.0
924.028,1992790.0
924.183,2003060.0
924.436,2019640.0
924.688,2036200.0
924.939,2052900.0
925.189,2069720.0
925.579,2094440.0
925.97,2103890.0
926.067,2101520.0
926.165,2105410.0
926.189,2106890.0
926.214,2108430.0
926.22,2108790.0
926.226,2109170.0
926.232,2109530.0
926.238,2109910.0
926.263,2111450.0
926.287,2112920.0
926.337,2116020.0
926.385,2121170.0
926.481,2136230.0
926.532,2144670.0
926.632,2159550.0
926.832,2182580.0
926.873,2186590.0
926.955,2194080.0
927.119,2208290.0
927.263,2220550.0
927.551,2244210.0
927.875,2270870.0
928.487,2321280.0
929.097,2372230.0
929.706,2421390.0
930.098,2442110.0
930.295,2436450.0
930.491,2406520.0
930.589,2396720.0
930.687,2400990.0
930.711,2402660.0
930.736,2404390.0
930.742,2404810.0
930.748,2405230.0
930.754,2405650.0
930.76,2406060.0
930.785,2407800.0
930.809,2409470.0
930.859,2412960.0
930.907,2418860.0
931.003,2442610.0
931.005,2443270.0
931.055,2460390.0
931.155,2495240.0
931.355,2546760.0
931.398,2555160.0
931.484,2569750.0
931.656,2594560.0
931.79,2611920.0
932.058,2642900.0
932.593,2698850.0
933.033,2743420.0
933.914,2833240.0
934.276,2870090.0
935.001,2943970.0
935.514,2996420.0
936.54,3091450.0
936.753,3103380.0
936.951,3106280.0
937.148,3089520.0
937.346,3038750.0
937.543,2951590.0
937.594,2939460.0
937.642,2933750.0
937.738,2938690.0
937.741,2938940.0
937.766,2941030.0
937.791,2943120.0
937.797,2943610.0
937.803,2944120.0
937.809,2944620.0
937.815,2945120.0
937.84,2947220.0
937.865,2949310.0
937.915,2953500.0
937.964,2960730.0
938.062,2995170.0
938.16,3056410.0
938.258,3120720.0
938.356,3173450.0
938.454,3215350.0
938.458,3216780.0
938.508,3234290.0
938.608,3266450.0
938.808,3312500.0
938.853,3320620.0
938.943,3335770.0
939.123,3364450.0
939.484,3414950.0
940.204,3501440.0
940.434,3528060.0
940.893,3581160.0
941.812,3686530.0
942.015,3710030.0
942.421,3757180.0
942.894,3811410.0
943.773,3913410.0
944.625,4014940.0
945.478,4118480.0
947.079,4314390.0
947.88,4396860.0
948.68,4433660.0
948.88,4412000.0
949.08,4356460.0
949.28,4254230.0
949.48,4122390.0
949.53,4107100.0
949.58,4099650.0
949.68,4107180.0
949.705,4110030.0
949.73,4112860.0
949.737,4113670.0
949.743,4114340.0
949.749,4115030.0
949.755,4115710.0
949.781,4118670.0
949.806,4121520.0
949.856,4127230.0
949.906,4136770.0
950.006,4182670.0
950.056,4222020.0
950.156,4315700.0
950.356,4486150.0
950.406,4519680.0
950.506,4580020.0
950.706,4673800.0
950.806,4708220.0
951.005,4763010.0
951.404,4852940.0
952.202,5000750.0
952.407,5032760.0
952.816,5095950.0
953.635,5220810.0
954.008,5278390.0
954.753,5395920.0
955.609,5532420.0
957.211,5792740.0
958.812,6068480.0
960.413,6362790.0
960.776,6432040.0
961.14,6502630.0
961.376,6547440.0
961.611,6592010.0
962.081,6682250.0
963.021,6867440.0
963.251,6913740.0
963.71,7007430.0
964.629,7200180.0
964.89,7256250.0
965.412,7369990.0
966.456,7606020.0
966.53,7623200.0
966.678,7657830.0
966.975,7727910.0
967.567,7870090.0
968.169,8011490.0
969.372,8301160.0
969.809,8410120.0
970.683,8626590.0
971.448,8817550.0
971.858,8906560.0
972.268,8994020.0
972.37,9014980.0
972.473,9035560.0
972.499,9040790.0
972.524,9045760.0
972.531,9047130.0
972.537,9048330.0
972.543,9049530.0
972.55,9050880.0
972.575,9055850.0
972.601,9061000.0
972.653,9070690.0
972.703,9081530.0
972.803,9103690.0
972.806,9104400.0
972.856,9115430.0
972.956,9137390.0
973.156,9182740.0
973.216,9196550.0
973.336,9225150.0
973.576,9293470.0
973.626,9307710.0
973.726,9336600.0
973.926,9395820.0
974.326,9519360.0
975.126,9763080.0
975.265,9804950.0
975.544,9887480.0
976.101,10054400.0
976.905,10299800.0
978.512,10811800.0
978.544,10821800.0
978.608,10841700.0
978.735,10881600.0
978.989,10962000.0
979.498,11126500.0
980.184,11349400.0
981.556,11797400.0
981.823,11887300.0
982.357,12068700.0
983.424,12435600.0
983.463,12448900.0
983.54,12475500.0
983.694,12529000.0
984.003,12636900.0
984.62,12857100.0
985.102,13032100.0
986.065,13388000.0
986.742,13637800.0
988.095,14157500.0
988.381,14270300.0
988.953,14499200.0
990.021,14923200.0
991.66,15607600.0
993.3,16313500.0
996.58,17819700.0
996.65,17852900.0
996.79,17919400.0
997.07,18053600.0
997.63,18326200.0
998.75,18889200.0
1000.0,19522900.0
1001.912,20534700.0
1003.824,21590200.0
1005.553,22582700.0
1007.282,23623600.0
1009.011,24686700.0
1010.74,25810600.0
1012.469,26914200.0
1014.199,28069800.0
1015.928,29244000.0
1017.657,30365400.0
1019.386,31372000.0
1020.25,31778600.0
1021.115,32053300.0
1021.979,32112600.0
1022.844,31904300.0
1023.708,31411500.0
1024.573,30697600.0
1024.624,30654200.0
1024.674,30608300.0
1024.724,30561200.0
1024.774,30509100.0
1024.824,30441300.0
1024.874,30380400.0
1024.924,30316200.0
1024.974,30231500.0
1025.006,30168700.0
1025.069,30054400.0
1025.196,29734200.0
1025.317,29280600.0
1025.438,28694900.0
1025.546,28346300.0
1025.6,28304800.0
1025.654,28310700.0
1025.681,28327900.0
1025.708,28345700.0
1025.715,28350300.0
1025.72,28353600.0
1025.722,28355000.0
1025.729,28359600.0
1025.736,28364200.0
1025.763,28382100.0
1025.79,28400100.0
1025.844,28453500.0
1025.898,28549600.0
1026.005,28994300.0
1026.056,29307400.0
1026.106,29621100.0
1026.156,29930700.0
1026.206,30200500.0
1026.256,30450800.0
1026.306,30675700.0
1026.356,30873200.0
1026.406,31053000.0
1026.438,31157600.0
1026.501,31370200.0
1026.628,31729600.0
1026.87,32342300.0
1027.355,33449900.0
1028.324,35743900.0
1028.6,36344300.0
1029.152,37460100.0
1030.257,39495300.0
1030.329,39618200.0
1030.474,39865100.0
1030.763,40356300.0
1031.341,41329300.0
1032.058,42450400.0
1033.493,44500400.0
1033.787,44909700.0
1034.376,45687100.0
1035.516,47138900.0
1037.246,49563900.0
1038.975,51993700.0
1040.704,54401900.0
1042.433,56790100.0
1044.162,59314300.0
1045.892,62012100.0
1047.621,64712500.0
1048.81,66631000.0
1050.0,68660600.0
1052.38,72916500.0
1055.0,77608900.0
1057.62,82730700.0
1060.0,87699400.0
1062.38,93041700.0
1064.76,98799600.0
1065.0,99404100.0
1065.48,100654000.0
1066.441,103137000.0
1068.363,107878000.0
1070.0,112165000.0
1073.273,121819000.0
1075.0,126499000.0
1076.727,131568000.0
1078.453,137286000.0
1080.0,143027000.0
1081.538,148850000.0
1083.077,154197000.0
1086.155,165799000.0
1086.538,167369000.0
1087.304,170557000.0
1088.835,177307000.0
1090.0,182184000.0
1092.33,191612000.0
1095.0,203559000.0
1097.67,217224000.0
1100.0,228197000.0
1104.661,251365000.0
1105.0,253230000.0
1105.679,256850000.0
1107.036,264011000.0
1109.751,276168000.0
1110.0,277220000.0
1110.498,279401000.0
1111.494,283682000.0
1113.486,291657000.0
1115.0,298050000.0
1118.027,308775000.0
1120.0,314655000.0
1123.945,324313000.0
1125.0,326926000.0
1127.109,331647000.0
1130.0,339552000.0
1131.154,343481000.0
1132.308,347492000.0
1134.616,356618000.0
1136.154,363149000.0
1139.23,377498000.0
1140.0,381160000.0
1141.539,389061000.0
1144.617,405920000.0
1145.0,408145000.0
1145.766,412431000.0
1147.297,421437000.0
1150.0,437797000.0
1152.703,454798000.0
1155.406,472212000.0
1158.109,490008000.0
1160.812,508476000.0
1163.516,527660000.0
1165.769,544218000.0
1170.276,579824000.0
1174.783,620139000.0
1179.29,664922000.0
1181.538,688941000.0
1185.628,735238000.0
1189.718,784909000.0
1191.767,810653000.0
1193.816,836435000.0
1195.866,862074000.0
1197.915,887792000.0
1199.964,914019000.0
1202.014,940337000.0
1204.063,966456000.0
1206.113,991117000.0
1208.162,1012600000.0
1210.211,1033840000.0
1212.261,1060030000.0
1214.31,1092940000.0
1214.822,1101720000.0
1215.335,1110550000.0
1215.463,1112470000.0
1215.591,1114100000.0
1215.623,1114660000.0
1215.655,1115230000.0
1215.663,1115380000.0
1215.67,1115500000.0
1215.679,1115660000.0
1215.687,1115800000.0
1215.719,1116370000.0
1215.751,1116950000.0
1215.815,1118400000.0
1215.879,1120040000.0
1216.007,1122950000.0
1216.263,1128230000.0
1216.52,1133780000.0
1217.032,1145570000.0
1218.056,1176320000.0
1219.08,1214090000.0
1219.081,1214140000.0
1219.131,1215980000.0
1219.181,1217890000.0
1219.231,1219930000.0
1219.281,1221970000.0
1219.331,1224090000.0
1219.381,1226230000.0
1219.431,1228390000.0
1219.481,1230560000.0
1219.531,1232460000.0
1219.582,1234170000.0
1219.632,1235900000.0
1219.682,1237630000.0
1219.732,1239390000.0
1219.782,1241260000.0
1219.832,1243250000.0
1219.882,1245260000.0
1219.932,1247290000.0
1219.982,1249350000.0
1220.032,1251060000.0
1220.082,1252590000.0
1220.132,1254120000.0
1220.182,1255660000.0
1220.232,1257200000.0
1220.282,1258750000.0
1220.332,1260320000.0
1220.382,1261930000.0
1220.432,1263590000.0
1220.482,1265290000.0
1220.532,1266960000.0
1220.583,1268610000.0
1220.633,1270260000.0
1220.683,1271920000.0
1220.733,1273580000.0
1220.783,1275250000.0
1220.833,1276930000.0
1220.883,1278630000.0
1220.933,1280330000.0
1220.983,1282050000.0
1221.033,1283720000.0
1221.083,1285370000.0
1221.131,1286980000.0
1221.227,1290290000.0
1221.419,1297040000.0
1221.803,1307430000.0
1222.57,1327060000.0
1223.18,1345960000.0
1224.4,1380540000.0
1225.229,1401950000.0
1226.887,1441190000.0
1227.279,1450260000.0
1228.062,1468640000.0
1229.328,1499200000.0
1231.378,1550430000.0
1233.427,1602930000.0
1235.476,1656180000.0
1237.526,1710540000.0
1239.575,1765800000.0
1241.625,1822490000.0
1245.725,1941040000.0
1249.825,2066650000.0
1250.812,2097570000.0
1252.786,2161630000.0
1256.733,2294350000.0
1260.0,2411310000.0
1263.267,2536030000.0
1265.0,2603840000.0
1268.466,2741760000.0
1270.0,2805890000.0
1273.068,2937560000.0
1275.0,3022190000.0
1278.863,3203030000.0
1280.0,3257420000.0
1282.273,3367380000.0
1285.0,3500100000.0
1287.727,3638380000.0
1290.0,3757640000.0
1294.547,4009810000.0
1295.0,4035960000.0
1295.906,4088740000.0
1297.719,4195490000.0
1300.0,4332130000.0
1305.0,4640050000.0
1310.0,4966910000.0
1315.0,5314430000.0
1320.0,5683130000.0
1325.0,6074560000.0
1330.0,6490260000.0
1335.0,6930190000.0
1340.0,7394020000.0
1345.0,7883010000.0
1350.0,8400100000.0
1355.0,8948550000.0
1360.0,9525770000.0
1365.0,10135200000.0
1370.0,10779200000.0
1374.231,11349600000.0
1378.462,11945000000.0
1379.231,12056100000.0
1380.0,12168200000.0
1381.538,12395100000.0
1384.614,12859800000.0
1385.0,12919100000.0
1385.771,13038400000.0
1387.314,13279900000.0
1390.0,13709200000.0
1395.0,14540500000.0
1400.0,15415000000.0
1405.0,16335400000.0
1410.0,17304300000.0
1415.0,18321800000.0
1420.0,19387800000.0
1425.0,20506500000.0
1430.0,21680300000.0
1435.0,22907600000.0
1440.0,24188100000.0
1445.0,25526200000.0
1450.0,26925700000.0
1455.0,28388400000.0
1460.0,29918300000.0
1465.0,31517600000.0
1470.0,33196800000.0
1473.462,34407500000.0
1476.923,35658100000.0
1478.462,36227700000.0
1480.0,36805600000.0
1483.076,37987700000.0
1485.0,38745300000.0
1488.848,40301500000.0
1490.0,40777500000.0
1492.304,41742600000.0
1495.0,42893000000.0
1500.0,45083100000.0
1505.0,47354200000.0
1510.0,49729700000.0
1515.0,52227900000.0
1520.0,54840500000.0
1525.0,57529000000.0
1530.0,60252100000.0
1535.0,63008400000.0
1540.0,65841000000.0
1545.0,68812100000.0
1550.0,71948900000.0
1555.0,75252300000.0
1560.0,78698800000.0
1565.0,82250500000.0
1570.0,85878800000.0
1572.692,87863800000.0
1575.385,89874500000.0
1577.692,91623200000.0
1580.0,93401000000.0
1584.616,97060500000.0
1585.0,97372600000.0
1585.768,97999300000.0
1587.304,99266600000.0
1590.0,101539000000.0
1595.0,105933000000.0
1600.0,110576000000.0
1605.0,115487000000.0
1610.0,120680000000.0
1615.0,126166000000.0
1620.0,131982000000.0
1625.0,138115000000.0
1630.0,144582000000.0
1635.0,151400000000.0
1640.0,158551000000.0
1645.0,166046000000.0
1650.0,173921000000.0
1655.0,182218000000.0
1660.0,190986000000.0
1665.0,200222000000.0
1670.0,209969000000.0
1671.923,213845000000.0
1673.846,217840000000.0
1676.923,224487000000.0
1680.0,231473000000.0
1685.0,243707000000.0
1690.0,257735000000.0
1692.5,265626000000.0
1695.0,274518000000.0
1697.5,284490000000.0
1700.0,296062000000.0
1702.5,309193000000.0
1705.0,324983000000.0
1707.5,343064000000.0
1710.0,365548000000.0
1712.5,391034000000.0
1715.0,422909000000.0
1716.25,440289000000.0
1717.5,458484000000.0
1718.75,479606000000.0
1720.0,504131000000.0
1722.5,554916000000.0
1723.75,584506000000.0
1725.0,618483000000.0
1727.5,689158000000.0
1728.75,729886000000.0
1730.0,776250000000.0
1732.5,873333000000.0
1733.75,929897000000.0
1735.0,994071000000.0
1737.5,1126000000000.0
1738.75,1202070000000.0
1740.0,1287980000000.0
1742.5,1463770000000.0
1743.75,1564130000000.0
1745.0,1677080000000.0
1747.5,1907050000000.0
1748.75,2037710000000.0
1750.0,2183640000000.0
1752.5,2480100000000.0
1755.0,2830570000000.0
1757.5,3191850000000.0
1759.327,3486770000000.0
1761.154,3801570000000.0
1764.808,4463780000000.0
1768.462,5173610000000.0
1770.289,5573160000000.0
1772.116,5947310000000.0
1772.308,5987600000000.0
1772.808,6094380000000.0
1773.808,6315980000000.0
1775.808,6780380000000.0
1779.808,7684910000000.0
1787.808,9530970000000.0
1795.808,11373100000000.0
1803.808,13086600000000.0
1811.808,14694300000000.0
1819.808,16177100000000.0
1821.539,16480300000000.0
1825.001,17076500000000.0
1831.925,18204000000000.0
1845.772,20293700000000.0
1859.62,22218700000000.0
1870.769,23705100000000.0
1881.918,25153100000000.0
1893.067,26589300000000.0
1904.216,28023900000000.0
1915.365,29465800000000.0
1920.0,30068000000000.0
1929.27,31276100000000.0
1947.809,33730400000000.0
1966.348,36236800000000.0
1969.231,36631300000000.0
1974.998,37421300000000.0
1986.531,39017000000000.0
1998.064,40632000000000.0
2009.597,42258800000000.0
2018.462,43532800000000.0
2036.192,46100500000000.0
2053.921,48734200000000.0
2067.692,50829100000000.0
2081.462,52958000000000.0
2095.233,55122800000000.0
2109.003,57320200000000.0
2116.923,58599600000000.0
2132.762,61156500000000.0
2148.602,63730700000000.0
2164.441,66313100000000.0
2166.154,66589800000000.0
2169.58,67142000000000.0
2176.431,68252900000000.0
2190.135,70459900000000.0
2203.838,72673200000000.0
2215.385,74540400000000.0
2226.932,76416400000000.0
2238.48,78310700000000.0
2250.027,80233800000000.0
2261.574,82179500000000.0
2264.615,82699400000000.0
2270.696,83738400000000.0
2282.858,85837500000000.0
2295.02,87981700000000.0
2307.182,90172000000000.0
2313.846,91392500000000.0
2327.173,93871500000000.0
2340.5,96408000000000.0
2353.827,99024100000000.0
2363.077,100861000000000.0
2381.576,104581000000000.0
2400.075,108330000000000.0
2412.307,110790000000000.0
2424.539,113234000000000.0
2436.771,115650000000000.0
2449.003,118033000000000.0
2461.235,120403000000000.0
2461.538,120461000000000.0
2462.145,120575000000000.0
2463.359,120805000000000.0
2465.787,121263000000000.0
2470.642,122182000000000.0
2480.353,124023000000000.0
2499.775,127639000000000.0
2510.769,129660000000000.0
2521.763,131670000000000.0
2532.757,133660000000000.0
2543.751,135648000000000.0
2554.746,137625000000000.0
2560.0,138570000000000.0
2570.509,140439000000000.0
2581.018,142307000000000.0
2591.526,144167000000000.0
2602.035,146026000000000.0
2612.544,147879000000000.0
2623.053,149730000000000.0
2633.562,151577000000000.0
2644.07,153421000000000.0
2654.579,155261000000000.0
2658.461,155940000000000.0
2666.225,157285000000000.0
2681.752,159970000000000.0
2697.279,162660000000000.0
2712.807,165324000000000.0
2728.334,167990000000000.0
2743.861,170631000000000.0
2756.923,172845000000000.0
2769.985,175033000000000.0
2783.047,177212000000000.0
2796.108,179382000000000.0
2809.17,181543000000000.0
2822.232,183694000000000.0
2835.294,185834000000000.0
2848.355,187964000000000.0
2855.385,189105000000000.0
2869.444,191362000000000.0
2883.503,193604000000000.0
2897.562,195832000000000.0
2911.621,198046000000000.0
2925.68,200244000000000.0
2939.74,202427000000000.0
2945.1,203255000000000.0
2953.846,204601000000000.0
2971.338,207250000000000.0
2988.829,209873000000000.0
3006.321,212469000000000.0
3023.813,215037000000000.0
3041.304,217577000000000.0
3052.308,219159000000000.0
3063.312,220720000000000.0
3074.315,222269000000000.0
3085.319,223806000000000.0
3096.323,225331000000000.0
3107.326,226844000000000.0
3118.33,228345000000000.0
3129.334,229833000000000.0
3140.337,231309000000000.0
3150.769,232697000000000.0
3161.201,234069000000000.0
3171.632,235431000000000.0
3182.064,236781000000000.0
3187.7,237505000000000.0
3198.972,238943000000000.0
3210.244,240368000000000.0
3221.516,241779000000000.0
3232.788,243176000000000.0
3244.06,244558000000000.0
3249.231,245188000000000.0
3259.573,246436000000000.0
3269.916,247672000000000.0
3280.258,248897000000000.0
3290.6,250109000000000.0
3300.942,251309000000000.0
3311.285,252497000000000.0
3321.627,253674000000000.0
3331.969,254838000000000.0
3342.312,255990000000000.0
3347.692,256584000000000.0
3358.453,257761000000000.0
3369.213,258925000000000.0
3379.974,260077000000000.0
3390.735,261214000000000.0
3401.496,262339000000000.0
3412.256,263450000000000.0
3423.017,264548000000000.0
3433.778,265632000000000.0
3444.539,266703000000000.0
3446.154,266863000000000.0
3449.385,267180000000000.0
3455.847,267810000000000.0
3468.771,269056000000000.0
3481.695,270283000000000.0
3494.618,271490000000000.0
3507.542,272678000000000.0
3520.466,273847000000000.0
3533.39,274997000000000.0
3544.615,275981000000000.0
3555.84,276944000000000.0
3567.065,277893000000000.0
3578.29,278827000000000.0
3589.515,279747000000000.0
3595.868,280261000000000.0
3608.573,281273000000000.0
3621.278,282267000000000.0
3633.983,283242000000000.0
3646.5,284186000000000.0
3647.0,284223000000000.0
3647.12,284232000000000.0
3647.22,284388000000000.0
3647.42,284403000000000.0
3647.819,284434000000000.0
3648.0,284448000000000.0
3648.362,284476000000000.0
3649.085,284533000000000.0
3650.533,284645000000000.0
3653.427,284869000000000.0
3659.216,285313000000000.0
3665.005,285754000000000.0
3668.675,286031000000000.0
3676.014,286581000000000.0
3682.807,287085000000000.0
3686.832,287371000000000.0
3690.13,287623000000000.0
3691.554,287709000000000.0
3694.402,287934000000000.0
3696.486,288084000000000.0
3697.152,288102000000000.0
3698.484,288229000000000.0
3701.148,288421000000000.0
3702.843,288542000000000.0
3703.853,288559000000000.0
3705.0,288697000000000.0
3707.294,288861000000000.0
3709.2,288997000000000.0
3711.971,289088000000000.0
3715.556,289446000000000.0
3721.913,289688000000000.0
3721.938,289686000000000.0
3721.988,289704000000000.0
3722.038,289742000000000.0
3722.088,289784000000000.0
3722.138,289820000000000.0
3722.188,289848000000000.0
3722.238,289869000000000.0
3722.288,289885000000000.0
3722.338,289897000000000.0
3722.388,289906000000000.0
3722.438,289914000000000.0
3722.489,289920000000000.0
3722.539,289926000000000.0
3722.589,289931000000000.0
3722.639,289936000000000.0
3722.689,289941000000000.0
3722.739,289945000000000.0
3722.789,289949000000000.0
3722.839,289953000000000.0
3722.889,289957000000000.0
3722.939,289960000000000.0
3722.989,289964000000000.0
3723.039,289968000000000.0
3723.089,289972000000000.0
3723.139,289975000000000.0
3723.189,289979000000000.0
3723.239,289982000000000.0
3723.289,289986000000000.0
3723.339,289990000000000.0
3723.389,289993000000000.0
3723.439,289997000000000.0
3723.49,290000000000000.0
3723.54,290004000000000.0
3723.59,290008000000000.0
3723.64,290011000000000.0
